 #k-path energy <sx> <sy> <sz> orbital
 #band           1
 0.00000000E+00   -26.74613285       0.014865      -0.108485      -0.992769       1.000000
 0.16750419E-02   -26.74576245      -0.043827      -0.004584      -0.998857       1.000000
 0.33500838E-02   -26.74486280      -0.048278      -0.003573      -0.998622       1.000000
 0.50251257E-02   -26.74343617      -0.052455      -0.002219      -0.998380       1.000000
 0.67001675E-02   -26.74148487      -0.056379      -0.000433      -0.998133       1.000000
 0.83752094E-02   -26.73901118      -0.060035       0.001805      -0.997881       1.000000
 0.10050251E-01   -26.73601726      -0.063396       0.004508      -0.997628       1.000000
 0.11725293E-01   -26.73250515      -0.066436       0.007690      -0.997374       1.000000
 0.13400335E-01   -26.72847671      -0.069120       0.011371      -0.997119       1.000000
 0.15075377E-01   -26.72393360      -0.071411       0.015579      -0.996864       1.000000
 0.16750419E-01   -26.71887731      -0.073261       0.020349      -0.996606       1.000000
 0.18425461E-01   -26.71330907      -0.074615       0.025731      -0.996342       1.000000
 0.20100503E-01   -26.70722990      -0.075401       0.031788      -0.996066       1.000000
 0.21775545E-01   -26.70064057      -0.075531       0.038604      -0.995771       1.000000
 0.23450586E-01   -26.69354163      -0.074889       0.046291      -0.995441       1.000000
 0.25125628E-01   -26.68593339      -0.073326       0.054994      -0.995054       1.000000
 0.26800670E-01   -26.67781596      -0.070639       0.064913      -0.994576       1.000000
 0.28475712E-01   -26.66918921      -0.066551       0.076317      -0.993949       1.000000
 0.30150754E-01   -26.66005287      -0.060673       0.089583      -0.993079       1.000000
 0.31825796E-01   -26.65040648      -0.052441       0.105251      -0.991809       1.000000
 0.33500838E-01   -26.64024953      -0.041009       0.124121      -0.989854       1.000000
 0.35175880E-01   -26.62958140      -0.025054       0.147419      -0.986687       1.000000
 0.36850921E-01   -26.61840158      -0.002399       0.177116      -0.981250       1.000000
 0.38525963E-01   -26.60670995       0.030758       0.216535      -0.971254       1.000000
 0.40201005E-01   -26.59450714       0.081522       0.271580      -0.951177       1.000000
 0.41876047E-01   -26.58179594       0.163979       0.352905      -0.905874       1.000000
 0.43551089E-01   -26.56858384       0.304907       0.476216      -0.788256       1.000000
 0.45226131E-01   -26.55488374       0.521459       0.625403      -0.463807       1.000000
 0.46901173E-01   -26.54066197       0.662158       0.626456       0.128763       1.000000
 0.48576215E-01   -26.52572361       0.611054       0.454265       0.560125       1.000000
 0.50251257E-01   -26.50999217      -0.406316      -0.359524      -0.807860       1.000000
 0.51926298E-01   -26.49414697      -0.429009      -0.228521      -0.849348       1.000000
 0.53601340E-01   -26.47775138      -0.390435      -0.161388      -0.888641       1.000000
 0.55276382E-01   -26.46081285      -0.361405      -0.112739      -0.911722       1.000000
 0.56951424E-01   -26.44333410      -0.339529      -0.074117      -0.926224       1.000000
 0.58626466E-01   -26.42531593      -0.322386      -0.041054      -0.935849       1.000000
 0.60301508E-01   -26.40675889      -0.308291      -0.010721      -0.942439       1.000000
 0.61976550E-01   -26.38766378      -0.296033       0.019048      -0.946931       1.000000
 0.63651592E-01   -26.36803207      -0.284613       0.050368      -0.949726       1.000000
 0.65326634E-01   -26.34786658      -0.273005       0.085915      -0.950764       1.000000
 0.67001675E-01   -26.32717199      -0.259784       0.129952      -0.949274       1.000000
 0.68676717E-01   -26.30595679      -0.242263       0.190713      -0.942675       1.000000
 0.70351759E-01   -26.28423946      -0.213676       0.287273      -0.921866       1.000000
 0.72026801E-01   -26.26207491      -0.150531       0.472150      -0.843916       1.000000
 0.73701843E-01   -26.23972282       0.046328       0.832530      -0.429909       1.000000
 0.75376885E-01   -26.21809772       0.300532       0.731355       0.516066       1.000000
 0.77051927E-01   -26.19705298       0.322622       0.418469       0.819720       1.000000
 0.78726969E-01   -26.17579797       0.311959       0.269273       0.894578       1.000000
 0.80402011E-01   -26.15403291       0.301827       0.188559       0.922480       1.000000
 0.82077052E-01   -26.13156664       0.293655       0.137462       0.936097       1.000000
 0.83752094E-01   -26.10822947       0.286869       0.101395       0.943959       1.000000
 0.85427136E-01   -26.08386464       0.280971       0.073926       0.949048       1.000000
 0.87102178E-01   -26.05833077       0.275623       0.051826       0.952626       1.000000
 0.88777220E-01   -26.03150743       0.270599       0.033306       0.955313       1.000000
 0.90452262E-01   -26.00330081       0.265734       0.017299       0.957440       1.000000
 0.92127304E-01   -25.97364793       0.260902       0.003138       0.959207       1.000000
 0.93802346E-01   -25.94252029       0.255995      -0.009615       0.960739       1.000000
 0.95477388E-01   -25.90992600       0.250896      -0.021241       0.962132       1.000000
 0.97152429E-01   -25.87590974       0.245415      -0.031904       0.963479       1.000000
 0.98827471E-01   -25.84055220       0.238652      -0.041475       0.965073       1.000000
 0.10050251E+00   -25.80578238      -0.241127       0.053416      -0.964161       1.000000
 0.10217756E+00   -25.77453793      -0.230751       0.060826      -0.966618       1.000000
 0.10385260E+00   -25.74278315      -0.223684       0.068833      -0.967949       1.000000
 0.10552764E+00   -25.71051193      -0.216499       0.076379      -0.969215       1.000000
 0.10720268E+00   -25.67771892      -0.208917       0.083389      -0.970501       1.000000
 0.10887772E+00   -25.64439808      -0.200834       0.089830      -0.971838       1.000000
 0.11055276E+00   -25.61054584      -0.192186       0.095678      -0.973242       1.000000
 0.11222781E+00   -25.57615878      -0.182918       0.100901      -0.974723       1.000000
 0.11390285E+00   -25.54123546      -0.172976       0.105463      -0.976285       1.000000
 0.11557789E+00   -25.50577609      -0.162308       0.109327      -0.977931       1.000000
 0.11725293E+00   -25.46978301      -0.150853       0.112450      -0.979658       1.000000
 0.11892797E+00   -25.43326029      -0.138547       0.114784      -0.981458       1.000000
 0.12060302E+00   -25.39621417      -0.125315       0.116277      -0.983318       1.000000
 0.12227806E+00   -25.35865233      -0.111073       0.116872      -0.985217       1.000000
 0.12395310E+00   -25.32058400      -0.095721       0.116502      -0.987126       1.000000
 0.12562814E+00   -25.28201871      -0.079143       0.115090      -0.989005       1.000000
 0.12730318E+00   -25.24296756      -0.061207       0.112543      -0.990801       1.000000
 0.12897823E+00   -25.20344005      -0.041759       0.108752      -0.992442       1.000000
 0.13065327E+00   -25.16344532      -0.020624       0.103585      -0.993831       1.000000
 0.13232831E+00   -25.12299107       0.002392       0.096884      -0.994841       1.000000
 0.13400335E+00   -25.08208245       0.027502       0.088462      -0.995305       1.000000
 0.13567839E+00   -25.04072225       0.054930       0.078099      -0.995002       1.000000
 0.13735343E+00   -24.99891007       0.084905       0.065550      -0.993648       1.000000
 0.13902848E+00   -24.95664213       0.117641       0.050542      -0.990878       1.000000
 0.14070352E+00   -24.91391109       0.153316       0.032797      -0.986230       1.000000
 0.14237856E+00   -24.87070581       0.192047       0.012049      -0.979140       1.000000
 0.14405360E+00   -24.82701277       0.233864      -0.011919      -0.968931       1.000000
 0.14572864E+00   -24.78281522       0.278729      -0.039237      -0.954803       1.000000
 0.14740369E+00   -24.73809449       0.326809      -0.069958      -0.935716       1.000000
 0.14907873E+00   -24.69283224       0.382282      -0.104910      -0.908392       1.000000
 0.15075377E+00   -24.64825487      -0.406241       0.135790       0.892208       1.000000
 0.15242881E+00   -24.60432819      -0.464486       0.174719       0.852590       1.000000
 0.15410385E+00   -24.55944445      -0.513577       0.211623       0.811538       1.000000
 0.15577890E+00   -24.51363789      -0.559430       0.246616       0.766319       1.000000
 0.15745394E+00   -24.46694656      -0.602158       0.278176       0.717700       1.000000
 0.15912898E+00   -24.41940783      -0.641832       0.304629       0.666908       1.000000
 0.16080402E+00   -24.37106023      -0.678882       0.324284       0.615230       1.000000
 0.16247906E+00   -24.32194041      -0.714112       0.335423       0.563758       1.000000
 0.16415410E+00   -24.27208667      -0.748550       0.336198       0.513227       1.000000
 0.16582915E+00   -24.22154182      -0.783185       0.324470       0.463965       1.000000
 0.16750419E+00   -24.17035491      -0.818617       0.297685       0.415878       1.000000
 0.16917923E+00   -24.11858496      -0.854516       0.252889       0.368595       1.000000
 0.17085427E+00   -24.06629954      -0.888977       0.187137       0.321654       1.000000
 0.17252931E+00   -24.01357448      -0.917923       0.098629       0.274938       1.000000
 0.17420436E+00   -23.96048692      -0.935275      -0.011371       0.229228       1.000000
 0.17587940E+00   -23.90710623      -0.934761      -0.136646       0.186707       1.000000
 0.17755444E+00   -23.85348256      -0.913217      -0.266244       0.150768       1.000000
 0.17922948E+00   -23.79963630      -0.872951      -0.387987       0.124911       1.000000
 0.18090452E+00   -23.74556031      -0.820670      -0.493056       0.111447       1.000000
 0.18257957E+00   -23.69122780      -0.763964      -0.577995       0.111034       1.000000
 0.18425461E+00   -23.63660052      -0.708479      -0.643532       0.123103       1.000000
 0.18592965E+00   -23.58163670      -0.657151      -0.692289       0.146583       1.000000
 0.18760469E+00   -23.52629503      -0.610768      -0.727078       0.180380       1.000000
 0.18927973E+00   -23.47053438      -0.568813      -0.750124       0.223471       1.000000
 0.19095478E+00   -23.41431434      -0.530133      -0.762881       0.274847       1.000000
 0.19262982E+00   -23.35759404      -0.493368      -0.766137       0.333341       1.000000
 0.19430486E+00   -23.30033479      -0.457200      -0.760251       0.397490       1.000000
 0.19597990E+00   -23.24249551      -0.420500      -0.745472       0.465380       1.000000
 0.19765494E+00   -23.18403757      -0.382215      -0.722288       0.534779       1.000000
 0.19932998E+00   -23.12492588      -0.337567      -0.692665       0.604274       1.000000
 0.20100503E+00   -23.06633243       0.312758       0.653439      -0.666033       1.000000
 0.20268007E+00   -23.00795880       0.269661       0.612130      -0.725338       1.000000
 0.20435511E+00   -22.94902969       0.229984       0.567580      -0.776642       1.000000
 0.20603015E+00   -22.88954888       0.192226       0.522480      -0.819990       1.000000
 0.20770519E+00   -22.82952799       0.156785       0.478745      -0.855575       1.000000
 0.20938024E+00   -22.76898185       0.124055       0.437810      -0.884049       1.000000
 0.21105528E+00   -22.70792953       0.094264       0.400652      -0.906328       1.000000
 0.21273032E+00   -22.64639118       0.067468       0.367844      -0.923410       1.000000
 0.21440536E+00   -22.58438515       0.043591       0.339624      -0.936259       1.000000
 0.21608040E+00   -22.52193201       0.022473       0.316006      -0.945722       1.000000
 0.21775545E+00   -22.45905010       0.003908       0.296857      -0.952504       1.000000
 0.21943049E+00   -22.39576214      -0.012326       0.281965      -0.957171       1.000000
 0.22110553E+00   -22.33208600      -0.026450       0.271079      -0.960158       1.000000
 0.22278057E+00   -22.26804072      -0.038667       0.263936      -0.961793       1.000000
 0.22445561E+00   -22.20364467      -0.049164       0.260286      -0.962308       1.000000
 0.22613065E+00   -22.13891671      -0.058097       0.259899      -0.961862       1.000000
 0.22780570E+00   -22.07387407      -0.065600       0.262566      -0.960556       1.000000
 0.22948074E+00   -22.00853354      -0.071773       0.268101      -0.958441       1.000000
 0.23115578E+00   -21.94291055      -0.076685       0.276337      -0.955530       1.000000
 0.23283082E+00   -21.87702030      -0.080366       0.287129      -0.951807       1.000000
 0.23450586E+00   -21.81087566      -0.082803       0.300336      -0.947231       1.000000
 0.23618091E+00   -21.74448804      -0.083933       0.315823      -0.941748       1.000000
 0.23785595E+00   -21.67786829      -0.083628       0.333458      -0.935287       1.000000
 0.23953099E+00   -21.61102478      -0.081692       0.353089      -0.927777       1.000000
 0.24120603E+00   -21.54396486      -0.077842       0.374551      -0.919141       1.000000
 0.24288107E+00   -21.47669443      -0.071691       0.397652      -0.909307       1.000000
 0.24455612E+00   -21.40921947      -0.062736       0.422218      -0.898173       1.000000
 0.24623116E+00   -21.34154459      -0.050329       0.448254      -0.885507       1.000000
 0.24790620E+00   -21.27367470      -0.033605       0.477122      -0.870192       1.000000
 0.24958124E+00   -21.20561489      -0.009909       0.543597      -0.828433       1.000000
 0.25125628E+00   -21.13796157      -0.013638      -0.494514       0.860032       1.000000
 0.25293132E+00   -21.07015807      -0.049192      -0.521258       0.841696       1.000000
 0.25460637E+00   -21.00202585      -0.093001      -0.534666       0.828723       1.000000
 0.25628141E+00   -20.93359595      -0.146401      -0.536844       0.818947       1.000000
 0.25795645E+00   -20.86490489      -0.209913      -0.524064       0.812990       1.000000
 0.25963149E+00   -20.79599221      -0.282661      -0.490825       0.811545       1.000000
 0.26130653E+00   -20.72690088      -0.361075      -0.430993       0.814509       1.000000
 0.26298158E+00   -20.65767711      -0.437491      -0.340197       0.820258       1.000000
 0.26465662E+00   -20.58836628      -0.500310      -0.220024       0.825600       1.000000
 0.26633166E+00   -20.51901026      -0.537697      -0.081374       0.827454       1.000000
 0.26800670E+00   -20.44964228      -0.543832       0.057815       0.825268       1.000000
 0.26968174E+00   -20.38028572      -0.521852       0.180680       0.821476       1.000000
 0.27135679E+00   -20.31095250      -0.480585       0.277964       0.819391       1.000000
 0.27303183E+00   -20.24164731      -0.429311       0.348272       0.821122       1.000000
 0.27470687E+00   -20.17236925      -0.374909       0.394693       0.827128       1.000000
 0.27638191E+00   -20.10311517      -0.321563       0.421753       0.836784       1.000000
 0.27805695E+00   -20.03387908      -0.271484       0.433815       0.849038       1.000000
 0.27973199E+00   -19.96465463      -0.225657       0.434539       0.862829       1.000000
 0.28140704E+00   -19.89543638      -0.184371       0.426823       0.877265       1.000000
 0.28308208E+00   -19.82622241      -0.147536       0.412912       0.891665       1.000000
 0.28475712E+00   -19.75701238      -0.114871       0.394525       0.905549       1.000000
 0.28643216E+00   -19.68781630      -0.086002       0.372989       0.918592       1.000000
 0.28810720E+00   -19.61864696      -0.060519       0.349318       0.930597       1.000000
 0.28978225E+00   -19.54952567      -0.038008       0.324290       0.941456       1.000000
 0.29145729E+00   -19.48048217      -0.018060       0.298501       0.951130       1.000000
 0.29313233E+00   -19.41155415      -0.000283       0.272377       0.959630       1.000000
 0.29480737E+00   -19.34278832       0.015729       0.246180       0.967009       1.000000
 0.29648241E+00   -19.27423754       0.030463       0.219879       0.973368       1.000000
 0.29815746E+00   -19.20596169       0.045087       0.192215       0.978990       1.000000
 0.29983250E+00   -19.13802566       0.094949       0.105224       0.989242       1.000000
 0.30150754E+00   -19.07162925      -0.058126      -0.160826      -0.984370       1.000000
 0.30318258E+00   -19.00584534      -0.070678      -0.134776      -0.987646       1.000000
 0.30485762E+00   -18.94057684      -0.080790      -0.112718      -0.989753       1.000000
 0.30653267E+00   -18.87585662      -0.089970      -0.092409      -0.991143       1.000000
 0.30820771E+00   -18.81171831      -0.098553      -0.073440      -0.991956       1.000000
 0.30988275E+00   -18.74819458      -0.106684      -0.055679      -0.992284       1.000000
 0.31155779E+00   -18.68531767      -0.114449      -0.039067      -0.992201       1.000000
 0.31323283E+00   -18.62312140      -0.121898      -0.023577      -0.991772       1.000000
 0.31490787E+00   -18.56163877      -0.129070      -0.009206      -0.991054       1.000000
 0.31658292E+00   -18.50090359      -0.135998       0.004027      -0.990101       1.000000
 0.31825796E+00   -18.44094863      -0.142718       0.016067      -0.988962       1.000000
 0.31993300E+00   -18.38181245      -0.149274       0.026819      -0.987683       1.000000
 0.32160804E+00   -18.32352916      -0.155735       0.036121      -0.986307       1.000000
 0.32328308E+00   -18.26613692      -0.162197       0.043718      -0.984875       1.000000
 0.32495813E+00   -18.20967270      -0.168829       0.049186      -0.983421       1.000000
 0.32663317E+00   -18.15417763      -0.175908       0.051846      -0.981964       1.000000
 0.32830821E+00   -18.09969154      -0.183968       0.050511      -0.980479       1.000000
 0.32998325E+00   -18.04626027      -0.194187       0.043119      -0.978770       1.000000
 0.33165829E+00   -17.99394607      -0.210527       0.027168      -0.975756       1.000000
 0.33333334E+00   -17.94628978      -0.144930      -0.144039      -0.861457       1.000000
 0.33333334E+00   -17.94628978      -0.144930      -0.144039      -0.861457       1.000000
 0.33500838E+00   -17.99335833       0.925327       0.260971      -0.152038       1.000000
 0.33668342E+00   -18.04290930       0.854603       0.285064      -0.377983       1.000000
 0.33835846E+00   -18.09194153       0.768369       0.288967      -0.536705       1.000000
 0.34003350E+00   -18.14043275       0.690408       0.282039      -0.641921       1.000000
 0.34170854E+00   -18.18838031       0.625734       0.270492      -0.713089       1.000000
 0.34338359E+00   -18.23578768       0.573151       0.257416      -0.763038       1.000000
 0.34505863E+00   -18.28266818       0.530796       0.245024      -0.798806       1.000000
 0.34673367E+00   -18.32903696       0.497987       0.237038      -0.823247       1.000000
 0.34840871E+00   -18.37490831       0.479558       0.250144      -0.830624       1.000000
 0.35008375E+00   -18.42032466       0.066870       0.611115       0.774446       1.000000
 0.35175880E+00   -18.46558765      -0.376842      -0.083754       0.917444       1.000000
 0.35343384E+00   -18.51035406      -0.370242      -0.086858       0.919963       1.000000
 0.35510888E+00   -18.55459648      -0.358260      -0.065623       0.926777       1.000000
 0.35678392E+00   -18.59829555      -0.347999      -0.029696       0.932799       1.000000
 0.35845896E+00   -18.64143560      -0.342308       0.029269       0.934981       1.000000
 0.36013401E+00   -18.68400212      -0.346396       0.146632       0.921541       1.000000
 0.36180905E+00   -18.72600238      -0.364658       0.502221       0.769026       1.000000
 0.36348409E+00   -18.76764104      -0.034602       0.820695      -0.534081       1.000000
