 #k-path energy <sx> <sy> <sz> orbital
 #band           1
 0.00000000E+00   -15.57653799      -0.157852      -0.617354      -0.738433       1.000000
 0.16750419E-02   -15.57712315      -0.715507       0.622295       0.014417       1.000000
 0.33500837E-02   -15.57732927      -0.741191       0.591424       0.006663       1.000000
 0.50251256E-02   -15.57714173      -0.766011       0.558724      -0.003757       1.000000
 0.67001674E-02   -15.57655671      -0.789029       0.525290      -0.015654       1.000000
 0.83752093E-02   -15.57557271      -0.810007       0.491522      -0.029090       1.000000
 0.10050251E-01   -15.57419037      -0.828834       0.457685      -0.044343       1.000000
 0.11725293E-01   -15.57241235      -0.845436       0.423982      -0.061762       1.000000
 0.13400335E-01   -15.57024312      -0.859738       0.390570      -0.081733       1.000000
 0.15075377E-01   -15.56768885      -0.871639       0.357563      -0.104671       1.000000
 0.16750419E-01   -15.56475720      -0.880991       0.325032      -0.131020       1.000000
 0.18425460E-01   -15.56145722      -0.887572       0.293005      -0.161250       1.000000
 0.20100502E-01   -15.55779920      -0.891052       0.261473      -0.195849       1.000000
 0.21775544E-01   -15.55379455      -0.890964       0.230389      -0.235303       1.000000
 0.23450586E-01   -15.54945566      -0.886665       0.199675      -0.280069       1.000000
 0.25125628E-01   -15.54479576      -0.877301       0.169234      -0.330512       1.000000
 0.26800670E-01   -15.53982875      -0.861788       0.138968      -0.386816       1.000000
 0.28475712E-01   -15.53456886      -0.838819       0.108799      -0.448858       1.000000
 0.30150753E-01   -15.52903036      -0.806933       0.078708      -0.516033       1.000000
 0.31825795E-01   -15.52322681      -0.764675       0.048778      -0.587080       1.000000
 0.33500837E-01   -15.51717034      -0.710877       0.019234      -0.659945       1.000000
 0.35175879E-01   -15.51087053      -0.645039      -0.009536      -0.731792       1.000000
 0.36850921E-01   -15.50433325      -0.567712      -0.037001      -0.799255       1.000000
 0.38525963E-01   -15.49755976      -0.480727      -0.062571      -0.858946       1.000000
 0.40201005E-01   -15.49054608      -0.387083      -0.085722      -0.908107       1.000000
 0.41876047E-01   -15.48328356      -0.290479      -0.106122      -0.945149       1.000000
 0.43551088E-01   -15.47575985      -0.194628      -0.123704      -0.969851       1.000000
 0.45226130E-01   -15.46796069      -0.102656      -0.138658      -0.983173       1.000000
 0.46901172E-01   -15.45987186      -0.016760      -0.151359      -0.986822       1.000000
 0.48576214E-01   -15.45148064       0.061831      -0.162274      -0.982791       1.000000
 0.50251256E-01   -15.44277707       0.132695      -0.171877      -0.973005       1.000000
 0.51926298E-01   -15.43375447       0.195971      -0.180594      -0.959129       1.000000
 0.53601340E-01   -15.42440965       0.252134      -0.188779      -0.942497       1.000000
 0.55276381E-01   -15.41474265       0.301823      -0.196702      -0.924130       1.000000
 0.56951423E-01   -15.40475655       0.345716      -0.204560      -0.904785       1.000000
 0.58626465E-01   -15.39445661       0.384467      -0.212480      -0.885010       1.000000
 0.60301507E-01   -15.38384981       0.418666      -0.220538      -0.865205       1.000000
 0.61976549E-01   -15.37294423       0.448828      -0.228763      -0.845666       1.000000
 0.63651591E-01   -15.36174833       0.475386      -0.237151      -0.826625       1.000000
 0.65326633E-01   -15.35027057       0.498697      -0.245660      -0.808274       1.000000
 0.67001674E-01   -15.33851875       0.519019      -0.254215      -0.790813       1.000000
 0.68676716E-01   -15.32649963       0.536460      -0.262637      -0.774549       1.000000
 0.70351758E-01   -15.31421874       0.550150      -0.269998      -0.760857       1.000000
 0.72026800E-01   -15.30201712      -0.572035       0.287047       0.736056       1.000000
 0.73701842E-01   -15.29021286      -0.578831       0.292096       0.727948       1.000000
 0.75376884E-01   -15.27811149      -0.587290       0.299960       0.716825       1.000000
 0.77051926E-01   -15.26569892      -0.594150       0.307876       0.706798       1.000000
 0.78726967E-01   -15.25296089      -0.599189       0.315583       0.698305       1.000000
 0.80402009E-01   -15.23988329      -0.602366       0.322977       0.691547       1.000000
 0.82077051E-01   -15.22645297      -0.603638       0.329994       0.686690       1.000000
 0.83752093E-01   -15.21265736      -0.602958       0.336579       0.683873       1.000000
 0.85427135E-01   -15.19848549      -0.600246       0.342683       0.683234       1.000000
 0.87102177E-01   -15.18392790      -0.595395       0.348251       0.684901       1.000000
 0.88777219E-01   -15.16897719      -0.588252       0.353220       0.689000       1.000000
 0.90452260E-01   -15.15362817      -0.578632       0.357511       0.695643       1.000000
 0.92127302E-01   -15.13787794      -0.566300       0.361022       0.704925       1.000000
 0.93802344E-01   -15.12172583      -0.550982       0.363620       0.716913       1.000000
 0.95477386E-01   -15.10517381      -0.532354       0.365132       0.731633       1.000000
 0.97152428E-01   -15.08822574      -0.510064       0.365332       0.749049       1.000000
 0.98827470E-01   -15.07088810      -0.483730       0.363935       0.769042       1.000000
 0.10050251E+00   -15.05316872      -0.452981       0.360593       0.791372       1.000000
 0.10217755E+00   -15.03507726      -0.417490       0.354889       0.815653       1.000000
 0.10385260E+00   -15.01662424      -0.377044       0.346354       0.841316       1.000000
 0.10552764E+00   -14.99782101      -0.331613       0.334490       0.867602       1.000000
 0.10720268E+00   -14.97867965      -0.281446       0.318805       0.893568       1.000000
 0.10887772E+00   -14.95921101      -0.227156       0.298888       0.918138       1.000000
 0.11055276E+00   -14.93942683      -0.169763       0.274457       0.940213       1.000000
 0.11222780E+00   -14.91933707      -0.110701       0.245427       0.958799       1.000000
 0.11390285E+00   -14.89895134      -0.051723       0.211933       0.973163       1.000000
 0.11557789E+00   -14.87827806       0.005242       0.174302       0.982945       1.000000
 0.11725293E+00   -14.85732527       0.058276       0.132998       0.988201       1.000000
 0.11892797E+00   -14.83610013       0.105640       0.088502       0.989354       1.000000
 0.12060301E+00   -14.81460992       0.145868       0.041229       0.987070       1.000000
 0.12227806E+00   -14.79286149       0.177777      -0.008580       0.982096       1.000000
 0.12395310E+00   -14.77086205       0.200416      -0.060879       0.975092       1.000000
 0.12562814E+00   -14.74861824       0.212955      -0.115850       0.966469       1.000000
 0.12730318E+00   -14.72613778       0.214536      -0.173809       0.956265       1.000000
 0.12897822E+00   -14.70342696       0.204179      -0.235196       0.943996       1.000000
 0.13065327E+00   -14.68049210       0.180688      -0.300360       0.928519       1.000000
 0.13232831E+00   -14.65733878       0.142654      -0.369337       0.907877       1.000000
 0.13400335E+00   -14.63397102       0.088618      -0.441567       0.879110       1.000000
 0.13567839E+00   -14.61039164       0.017318      -0.515382       0.838220       1.000000
 0.13735343E+00   -14.58660125      -0.071987      -0.587857       0.779986       1.000000
 0.13902847E+00   -14.56259847      -0.180258      -0.654846       0.697018       1.000000
 0.14070352E+00   -14.53837942      -0.316304      -0.712541       0.569105       1.000000
 0.14237856E+00   -14.51394001      -0.592848      -0.725490       0.163993       1.000000
 0.14405360E+00   -14.48937536       0.221020       0.664458      -0.670970       1.000000
 0.14572864E+00   -14.46464505       0.423709       0.722339      -0.464053       1.000000
 0.14740368E+00   -14.43968987       0.520500       0.722028      -0.338270       1.000000
 0.14907873E+00   -14.41450540       0.587326       0.706839      -0.237695       1.000000
 0.15075377E+00   -14.38908569       0.636561       0.684845      -0.154170       1.000000
 0.15242881E+00   -14.36342382       0.673566       0.660018      -0.084698       1.000000
 0.15410385E+00   -14.33751120       0.701770       0.634606      -0.027432       1.000000
 0.15577889E+00   -14.31133876       0.723630       0.609896       0.019261       1.000000
 0.15745393E+00   -14.28489711       0.740965       0.586547       0.056776       1.000000
 0.15912898E+00   -14.25817607       0.755131       0.564838       0.086157       1.000000
 0.16080402E+00   -14.23116718       0.767130       0.544826       0.108365       1.000000
 0.16247906E+00   -14.20386159       0.777713       0.526428       0.124025       1.000000
 0.16415410E+00   -14.17625157       0.787441       0.509492       0.133559       1.000000
 0.16582914E+00   -14.14833081       0.796725       0.493814       0.137217       1.000000
 0.16750419E+00   -14.12009420       0.805861       0.479159       0.135046       1.000000
 0.16917923E+00   -14.09153918       0.815024       0.465266       0.127000       1.000000
 0.17085427E+00   -14.06266433       0.824296       0.451843       0.112783       1.000000
 0.17252931E+00   -14.03347065       0.833631       0.438554       0.091967       1.000000
 0.17420435E+00   -14.00396103       0.842836       0.425006       0.063928       1.000000
 0.17587940E+00   -13.97414098       0.851508       0.410732       0.027923       1.000000
 0.17755444E+00   -13.94401872       0.858975       0.395162      -0.016943       1.000000
 0.17922948E+00   -13.91360386       0.864189       0.377605      -0.071647       1.000000
 0.18090452E+00   -13.88290841       0.865616       0.357228      -0.137060       1.000000
 0.18257956E+00   -13.85194701       0.861143       0.333109      -0.213633       1.000000
 0.18425460E+00   -13.82073521       0.848094       0.304305      -0.301043       1.000000
 0.18592965E+00   -13.78928965       0.823471       0.270078      -0.397586       1.000000
 0.18760469E+00   -13.75762755       0.784595       0.230224      -0.499671       1.000000
 0.18927973E+00   -13.72576415       0.730053       0.185407      -0.601908       1.000000
 0.19095477E+00   -13.69371199       0.660670       0.137332      -0.697906       1.000000
 0.19262981E+00   -13.66147903       0.579807       0.088487      -0.781862       1.000000
 0.19430486E+00   -13.62907041       0.492653       0.041552      -0.850086       1.000000
 0.19597990E+00   -13.59648548       0.404694      -0.001329      -0.901711       1.000000
 0.19765494E+00   -13.56372125       0.320461      -0.038886      -0.938164       1.000000
 0.19932998E+00   -13.53077279       0.242882      -0.070725      -0.962140       1.000000
 0.20100502E+00   -13.49763524       0.173386      -0.097068      -0.976619       1.000000
 0.20268007E+00   -13.46430314       0.112266      -0.118482      -0.984293       1.000000
 0.20435511E+00   -13.43077178       0.059153      -0.135646      -0.987323       1.000000
 0.20603015E+00   -13.39703718       0.013353      -0.149216      -0.987334       1.000000
 0.20770519E+00   -13.36309692      -0.025932      -0.159763      -0.985501       1.000000
 0.20938023E+00   -13.32894867      -0.059451      -0.167699      -0.982662       1.000000
 0.21105527E+00   -13.29459235      -0.087800      -0.173120      -0.979461       1.000000
 0.21273032E+00   -13.26002910      -0.110905      -0.174632      -0.976719       1.000000
 0.21440536E+00   -13.22533645       0.160334       0.253587       0.945949       1.000000
 0.21608040E+00   -13.19143765       0.147926       0.184240       0.966142       1.000000
 0.21775544E+00   -13.15744354       0.161422       0.182970       0.964008       1.000000
 0.21943048E+00   -13.12334657       0.173054       0.182604       0.961841       1.000000
 0.22110553E+00   -13.08913382       0.182594       0.181981       0.960015       1.000000
 0.22278057E+00   -13.05479191       0.190153       0.180911       0.958617       1.000000
 0.22445561E+00   -13.02030594       0.195884       0.179362       0.957671       1.000000
 0.22613065E+00   -12.98566103       0.199925       0.177332       0.957179       1.000000
 0.22780569E+00   -12.95084098       0.202397       0.174828       0.957133       1.000000
 0.22948073E+00   -12.91582998       0.203403       0.171851       0.957516       1.000000
 0.23115578E+00   -12.88061242       0.203027       0.168395       0.958311       1.000000
 0.23283082E+00   -12.84517454       0.201330       0.164446       0.959495       1.000000
 0.23450586E+00   -12.80950314       0.198361       0.159985       0.961047       1.000000
 0.23618090E+00   -12.77358679       0.194151       0.154983       0.962941       1.000000
 0.23785594E+00   -12.73741709       0.188713       0.149405       0.965151       1.000000
 0.23953099E+00   -12.70098719       0.182047       0.143212       0.967649       1.000000
 0.24120603E+00   -12.66429315       0.174134       0.136356       0.970401       1.000000
 0.24288107E+00   -12.62733354       0.164939       0.128786       0.973372       1.000000
 0.24455611E+00   -12.59011061       0.154408       0.120444       0.976519       1.000000
 0.24623115E+00   -12.55262855       0.142469       0.111270       0.979790       1.000000
 0.24790620E+00   -12.51489455       0.129030       0.101198       0.983123       1.000000
 0.24958124E+00   -12.47691806       0.113980       0.090159       0.986441       1.000000
 0.25125628E+00   -12.43871072       0.097186       0.078085       0.989648       1.000000
 0.25293132E+00   -12.40028832       0.078490       0.064903       0.992625       1.000000
 0.25460636E+00   -12.36166572       0.057721       0.050545       0.995222       1.000000
 0.25628140E+00   -12.32285989       0.034686       0.034947       0.997253       1.000000
 0.25795645E+00   -12.28388970       0.009178       0.018055       0.998486       1.000000
 0.25963149E+00   -12.24477385      -0.019015      -0.000170       0.998637       1.000000
 0.26130653E+00   -12.20553149      -0.050102      -0.019745       0.997360       1.000000
 0.26298157E+00   -12.16618252      -0.084267      -0.040651       0.994243       1.000000
 0.26465661E+00   -12.12674587      -0.121654      -0.062824       0.988804       1.000000
 0.26633166E+00   -12.08724023      -0.162333      -0.086140       0.980495       1.000000
 0.26800670E+00   -12.04768336      -0.206267      -0.110400       0.968722       1.000000
 0.26968174E+00   -12.00809307      -0.253271      -0.135312       0.952872       1.000000
 0.27135678E+00   -11.96848533      -0.302973      -0.160488       0.932366       1.000000
 0.27303182E+00   -11.92887574      -0.354797      -0.185451       0.906724       1.000000
 0.27470687E+00   -11.88927878      -0.407952      -0.209651       0.875645       1.000000
 0.27638191E+00   -11.84970929      -0.461445      -0.232498       0.839102       1.000000
 0.27805695E+00   -11.81018110      -0.514176      -0.253464       0.797366       1.000000
 0.27973199E+00   -11.77070829      -0.564999      -0.272178       0.751035       1.000000
 0.28140703E+00   -11.73130538      -0.612912      -0.288758       0.700781       1.000000
 0.28308207E+00   -11.69198854      -0.657126      -0.304853       0.646646       1.000000
 0.28475712E+00   -11.65277335      -0.697920      -0.335720       0.578791       1.000000
 0.28643216E+00   -11.61386395       0.716513       0.235528      -0.594401       1.000000
 0.28810720E+00   -11.57532575       0.751014       0.274540      -0.523131       1.000000
 0.28978224E+00   -11.53690407       0.776055       0.278097      -0.477808       1.000000
 0.29145728E+00   -11.49861645       0.795881       0.274922      -0.441717       1.000000
 0.29313233E+00   -11.46047993       0.810906       0.267875      -0.414943       1.000000
 0.29480737E+00   -11.42251206       0.821175       0.257779      -0.399028       1.000000
 0.29648241E+00   -11.38472958       0.826187       0.244804      -0.396490       1.000000
 0.29815745E+00   -11.34715027       0.824531       0.228632      -0.410875       1.000000
 0.29983249E+00   -11.30979301       0.813016       0.208321      -0.447133       1.000000
 0.30150753E+00   -11.27268024       0.785040       0.181988      -0.511567       1.000000
 0.30318258E+00   -11.23583865       0.727723       0.146405      -0.610236       1.000000
 0.30485762E+00   -11.19930411       0.619852       0.097468      -0.741418       1.000000
 0.30653266E+00   -11.16312345       0.440830       0.034100      -0.879755       1.000000
 0.30820770E+00   -11.12734857       0.203512      -0.034161      -0.973951       1.000000
 0.30988274E+00   -11.09201541      -0.032723      -0.090287      -0.994680       1.000000
 0.31155779E+00   -11.05713313      -0.218090      -0.126378      -0.964959       1.000000
 0.31323283E+00   -11.02269605      -0.346176      -0.146141      -0.919670       1.000000
 0.31490787E+00   -10.98869498      -0.431142      -0.155839      -0.877205       1.000000
 0.31658291E+00   -10.95512234      -0.487526      -0.159976      -0.842937       1.000000
 0.31825795E+00   -10.92197090      -0.525422      -0.161191      -0.816944       1.000000
 0.31993300E+00   -10.88923705      -0.551233      -0.160953      -0.797801       1.000000
 0.32160804E+00   -10.85691426      -0.568942      -0.160072      -0.783965       1.000000
 0.32328308E+00   -10.82499824      -0.581129      -0.158993      -0.774085       1.000000
 0.32495812E+00   -10.79348394      -0.589531      -0.157927      -0.767056       1.000000
 0.32663316E+00   -10.76237016      -0.595471      -0.156910      -0.761882       1.000000
 0.32830820E+00   -10.73165828      -0.600165      -0.155720      -0.757470       1.000000
 0.32998325E+00   -10.70136575      -0.605350      -0.153431      -0.751799       1.000000
 0.33165829E+00   -10.67159368      -0.614501      -0.144750      -0.736583       1.000000
 0.33333333E+00   -10.64932316       0.180874      -0.580404      -0.275825       1.000000
 0.33333333E+00   -10.64932316       0.180874      -0.580404      -0.275825       1.000000
 0.33500837E+00   -10.67422332      -0.376789      -0.394671      -0.812671       1.000000
 0.33668341E+00   -10.70264401      -0.408516      -0.376945      -0.810092       1.000000
 0.33835846E+00   -10.73085139      -0.425733      -0.357607      -0.811083       1.000000
 0.34003350E+00   -10.75878587      -0.440119      -0.335961      -0.813250       1.000000
 0.34170854E+00   -10.78645034      -0.453844      -0.311690      -0.815790       1.000000
 0.34338358E+00   -10.81385505      -0.467599      -0.284438      -0.818290       1.000000
 0.34505862E+00   -10.84101402      -0.481664      -0.253823      -0.820405       1.000000
 0.34673367E+00   -10.86793935      -0.496112      -0.219438      -0.821787       1.000000
 0.34840871E+00   -10.89463918      -0.510915      -0.180874      -0.822015       1.000000
 0.35008375E+00   -10.92112180      -0.525938      -0.137787      -0.820571       1.000000
 0.35175879E+00   -10.94738914      -0.540977      -0.089957      -0.816810       1.000000
 0.35343383E+00   -10.97344324      -0.555905      -0.037449      -0.809853       1.000000
 0.35510887E+00   -10.99928046      -0.571703       0.019204      -0.797829       1.000000
 0.35678392E+00   -11.02489617      -0.613927       0.074327      -0.757820       1.000000
 0.35845896E+00   -11.05070021       0.564300      -0.152526       0.785550       1.000000
 0.36013400E+00   -11.07633337       0.575842      -0.215088       0.759382       1.000000
 0.36180904E+00   -11.10165467       0.577942      -0.276781       0.734883       1.000000
 0.36348408E+00   -11.12666835       0.575071      -0.334246       0.710307       1.000000
