    2    2    1    1
  0.3647508E+02  0.2294499E-09  0.2294499E-09  0.1600000E-08  0.1000000E-16
  1.000000000000000E-004
  CAR 
 unknown system                          
     10     44     16
 
  0.0000000E+00  0.0000000E+00  0.0000000E+00  0.2500000E-02
      1        -30.038118   1.000000
      2        -14.502698   1.000000
      3         -8.393822   1.000000
      4         -8.393819   1.000000
      5         -5.631944   1.000000
      6         -0.036253   0.000000
      7         -0.036249   0.000000
      8          0.313749   0.000000
      9          2.077718   0.000000
     10          2.231052   0.000000
     11          3.310099   0.000000
     12          4.299362   0.000000
     13          6.117276   0.000000
     14          7.729435   0.000000
     15         10.129273   0.000000
     16         12.518538   0.000000
 
  0.5000000E-01  0.0000000E+00  0.0000000E+00  0.1500000E-01
      1        -29.966068   1.000000
      2        -14.436436   1.000000
      3         -8.796652   1.000000
      4         -8.520839   1.000000
      5         -5.596768   1.000000
      6         -0.080003   0.000000
      7          0.103432   0.000000
      8          0.581334   0.000000
      9          2.171041   0.000000
     10          2.322249   0.000000
     11          3.399211   0.000000
     12          4.392189   0.000000
     13          6.198826   0.000000
     14          7.819677   0.000000
     15         10.199839   0.000000
     16         12.603075   0.000000
 
  0.1000000E+00  0.0000000E+00  0.0000000E+00  0.1500000E-01
      1        -29.750156   1.000000
      2        -14.239744   1.000000
      3         -9.847059   1.000000
      4         -8.864890   1.000000
      5         -5.498198   1.000000
      6         -0.271561   0.000000
      7          0.479980   0.000000
      8          1.291196   0.000000
      9          2.450231   0.000000
     10          2.596185   0.000000
     11          3.666771   0.000000
     12          4.670279   0.000000
     13          6.442947   0.000000
     14          8.089715   0.000000
     15         10.409178   0.000000
     16         12.854157   0.000000
 
  0.1500000E+00  0.0000000E+00  0.0000000E+00  0.1500000E-01
      1        -29.391930   1.000000
      2        -13.923779   1.000000
      3        -11.264319   1.000000
      4         -9.344631   1.000000
      5         -5.362256   1.000000
      6         -0.560267   0.000000
      7          0.995422   0.000000
      8          2.117610   0.000000
      9          2.911152   0.000000
     10          3.059909   0.000000
     11          4.115576   0.000000
     12          5.132619   0.000000
     13          6.849461   0.000000
     14          8.537581   0.000000
     15         10.751971   0.000000
     16         13.262527   0.000000
 
  0.2000000E+00  0.0000000E+00  0.0000000E+00  0.1500000E-01
      1        -28.893605   1.000000
      2        -13.599601   1.000000
      3        -12.747866   1.000000
      4         -9.878189   1.000000
      5         -5.238375   1.000000
      6         -0.872519   0.000000
      7          1.546817   0.000000
      8          2.777463   0.000000
      9          3.551009   0.000000
     10          3.723004   0.000000
     11          4.751269   0.000000
     12          5.778649   0.000000
     13          7.420953   0.000000
     14          9.160623   0.000000
     15         11.225104   0.000000
     16         13.805276   0.000000
 
  0.2500000E+00  0.0000000E+00  0.0000000E+00  0.1500000E-01
      1        -28.259314   1.000000
      2        -14.684951   1.000000
      3        -12.774089   1.000000
      4        -10.400970   1.000000
      5         -5.202766   1.000000
      6         -1.129955   0.000000
      7          2.055509   0.000000
      8          3.124170   0.000000
      9          4.377465   0.000000
     10          4.556088   0.000000
     11          5.568642   0.000000
     12          6.609702   0.000000
     13          8.159423   0.000000
     14          9.956745   0.000000
     15         11.832815   0.000000
     16         14.423158   0.000000
 
  0.3000000E+00  0.0000000E+00  0.0000000E+00  0.1500000E-01
      1        -27.496177   1.000000
      2        -16.332075   1.000000
      3        -12.134913   1.000000
      4        -10.870587   1.000000
      5         -5.342525   1.000000
      6         -1.264473   0.000000
      7          2.474846   0.000000
      8          3.157640   0.000000
      9          5.379957   0.000000
     10          5.542340   0.000000
     11          6.552986   0.000000
     12          7.626574   0.000000
     13          9.056417   0.000000
     14         10.922951   0.000000
     15         12.578606   0.000000
     16         14.961959   0.000000
 
  0.3500000E+00 -0.2775558E-16  0.0000000E+00  0.1500000E-01
      1        -26.617967   1.000000
      2        -17.948370   1.000000
      3        -11.394684   1.000000
      4        -11.258764   1.000000
      5         -5.700724   1.000000
      6         -1.261205   0.000000
      7          2.787728   0.000000
      8          2.985918   0.000000
      9          6.524991   0.000000
     10          6.698875   0.000000
     11          7.702325   0.000000
     12          8.825706   0.000000
     13         10.093168   0.000000
     14         12.042166   0.000000
     15         13.426842   0.000000
     16         15.106528   0.000000
 
  0.4000000E+00  0.0000000E+00  0.0000000E+00  0.1500000E-01
      1        -25.657613   1.000000
      2        -19.454516   1.000000
      3        -11.547663   1.000000
      4        -10.622719   1.000000
      5         -6.234110   1.000000
      6         -1.176385   0.000000
      7          2.760251   0.000000
      8          2.997166   0.000000
      9          7.752877   0.000000
     10          8.050676   0.000000
     11          9.024266   0.000000
     12         10.196272   0.000000
     13         11.235404   0.000000
     14         13.145548   0.000000
     15         14.001849   0.000000
     16         14.518664   0.000000
 
  0.4500000E+00  0.0000000E+00  0.0000000E+00  0.1500000E-01
      1        -24.721208   1.000000
      2        -20.724230   1.000000
      3        -11.724266   1.000000
      4         -9.934270   1.000000
      5         -6.798458   1.000000
      6         -1.089725   0.000000
      7          2.593030   0.000000
      8          3.115308   0.000000
      9          8.991828   0.000000
     10          9.586036   0.000000
     11         10.509915   0.000000
     12         11.628662   0.000000
     13         12.122177   0.000000
     14         12.880206   0.000000
     15         13.290688   0.000000
     16         14.225964   0.000000
 
  0.5000000E+00  0.0000000E+00  0.0000000E+00  0.7500000E-02
      1        -24.227807   1.000000
      2        -21.331079   1.000000
      3        -11.784214   1.000000
      4         -9.614658   1.000000
      5         -7.080862   1.000000
      6         -1.055294   0.000000
      7          2.533754   0.000000
      8          3.153188   0.000000
      9          9.795787   0.000000
     10         11.127788   0.000000
     11         11.275532   0.000000
     12         11.391242   0.000000
     13         12.225047   0.000000
     14         12.438711   0.000000
     15         13.427893   0.000000
     16         13.490189   0.000000
 
  0.5000000E-01  0.5000000E-01  0.0000000E+00  0.1500000E-01
      1        -29.822023   1.000000
      2        -14.304819   1.000000
      3         -9.498400   1.000000
      4         -8.779700   1.000000
      5         -5.529584   1.000000
      6         -0.057887   0.000000
      7          0.174058   0.000000
      8          1.118124   0.000000
      9          2.357378   0.000000
     10          2.504250   0.000000
     11          3.577312   0.000000
     12          4.577656   0.000000
     13          6.361544   0.000000
     14          7.999837   0.000000
     15         10.339702   0.000000
     16         12.771002   0.000000
 
  0.1000000E+00  0.5000000E-01  0.0000000E+00  0.3000000E-01
      1        -29.534971   1.000000
      2        -14.047532   1.000000
      3        -10.681686   1.000000
      4         -9.243827   1.000000
      5         -5.411860   1.000000
      6         -0.217335   0.000000
      7          0.527037   0.000000
      8          1.905398   0.000000
      9          2.727922   0.000000
     10          2.868804   0.000000
     11          3.933893   0.000000
     12          4.947914   0.000000
     13          6.685977   0.000000
     14          8.358936   0.000000
     15         10.615002   0.000000
     16         13.101807   0.000000
 
  0.1500000E+00  0.5000000E-01  0.0000000E+00  0.3000000E-01
      1        -29.106662   1.000000
      2        -13.696574   1.000000
      3        -12.114563   1.000000
      4         -9.802197   1.000000
      5         -5.280237   1.000000
      6         -0.496925   0.000000
      7          1.078821   0.000000
      8          2.627463   0.000000
      9          3.277326   0.000000
     10          3.426320   0.000000
     11          4.473174   0.000000
     12          5.502193   0.000000
     13          7.172761   0.000000
     14          8.894804   0.000000
     15         11.020431   0.000000
     16         13.581964   0.000000
 
  0.2000000E+00  0.5000000E-01  0.0000000E+00  0.3000000E-01
      1        -28.540089   1.000000
      2        -13.964082   1.000000
      3        -12.947467   1.000000
      4        -10.371567   1.000000
      5         -5.196019   1.000000
      6         -0.770077   0.000000
      7          1.652935   0.000000
      8          3.086515   0.000000
      9          4.011504   0.000000
     10          4.173889   0.000000
     11          5.198698   0.000000
     12          6.240950   0.000000
     13          7.825398   0.000000
     14          9.605110   0.000000
     15         11.556186   0.000000
     16         14.176884   0.000000
 
  0.2500000E+00  0.5000000E-01  0.0000000E+00  0.3000000E-01
      1        -27.840740   1.000000
      2        -15.522749   1.000000
      3        -12.425842   1.000000
      4        -10.897404   1.000000
      5         -5.242672   1.000000
      6         -0.956116   0.000000
      7          2.160993   0.000000
      8          3.223990   0.000000
      9          4.929915   0.000000
     10          5.084088   0.000000
     11          6.101109   0.000000
     12          7.165337   0.000000
     13          8.643463   0.000000
     14         10.487404   0.000000
     15         12.229871   0.000000
     16         14.781959   0.000000
 
  0.3000000E+00  0.5000000E-01  0.0000000E+00  0.3000000E-01
      1        -27.018318   1.000000
      2        -17.146975   1.000000
      3        -11.741438   1.000000
      4        -11.333855   1.000000
      5         -5.490257   1.000000
      6         -1.006450   0.000000
      7          2.545880   0.000000
      8          3.119666   0.000000
      9          6.010771   0.000000
     10          6.155878   0.000000
     11          7.170517   0.000000
     12          8.273828   0.000000
     13          9.614651   0.000000
     14         11.533648   0.000000
     15         13.037158   0.000000
     16         15.147517   0.000000
 
  0.3500000E+00  0.5000000E-01  0.0000000E+00  0.3000000E-01
      1        -26.093251   1.000000
      2        -18.704981   1.000000
      3        -11.717574   1.000000
      4        -10.945582   1.000000
      5         -5.943391   1.000000
      6         -0.938797   0.000000
      7          2.648972   0.000000
      8          3.061542   0.000000
      9          7.204645   0.000000
     10          7.412271   0.000000
     11          8.408590   0.000000
     12          9.560139   0.000000
     13         10.716435   0.000000
     14         12.696174   0.000000
     15         13.876883   0.000000
     16         14.846989   0.000000
 
  0.4000000E+00  0.5000000E-01  0.0000000E+00  0.3000000E-01
      1        -25.121998   1.000000
      2        -20.110493   1.000000
      3        -11.953673   1.000000
      4        -10.197868   1.000000
      5         -6.516010   1.000000
      6         -0.826221   0.000000
      7          2.461491   0.000000
      8          3.201736   0.000000
      9          8.451184   0.000000
     10          8.861144   0.000000
     11          9.820039   0.000000
     12         11.000194   0.000000
     13         11.859138   0.000000
     14         13.194688   0.000000
     15         13.949227   0.000000
     16         14.438244   0.000000
 
  0.4500000E+00  0.5000000E-01  0.0000000E+00  0.3000000E-01
      1        -24.317219   1.000000
      2        -21.135516   1.000000
      3        -12.075232   1.000000
      4         -9.641195   1.000000
      5         -6.993791   1.000000
      6         -0.746838   0.000000
      7          2.322290   0.000000
      8          3.296687   0.000000
      9          9.606877   0.000000
     10         10.470723   0.000000
     11         11.266102   0.000000
     12         11.788204   0.000000
     13         12.219294   0.000000
     14         12.724301   0.000000
     15         13.284421   0.000000
     16         13.666729   0.000000
 
  0.1000000E+00  0.1000000E+00  0.0000000E+00  0.1500000E-01
      1        -29.177818   1.000000
      2        -13.747636   1.000000
      3        -11.805819   1.000000
      4         -9.870816   1.000000
      5         -5.296929   1.000000
      6          0.000409   0.000000
      7          0.545278   0.000000
      8          2.609396   0.000000
      9          3.186857   0.000000
     10          3.318546   0.000000
     11          4.377946   0.000000
     12          5.410192   0.000000
     13          7.088768   0.000000
     14          8.806370   0.000000
     15         10.951001   0.000000
     16         13.507514   0.000000
 
  0.1500000E+00  0.1000000E+00  0.0000000E+00  0.3000000E-01
      1        -28.681065   1.000000
      2        -13.610374   1.000000
      3        -12.866614   1.000000
      4        -10.572468   1.000000
      5         -5.200295   1.000000
      6         -0.082648   0.000000
      7          0.996199   0.000000
      8          3.122745   0.000000
      9          3.829434   0.000000
     10          3.954868   0.000000
     11          5.003551   0.000000
     12          6.057396   0.000000
     13          7.652541   0.000000
     14          9.430414   0.000000
     15         11.412834   0.000000
     16         14.054809   0.000000
 
  0.2000000E+00  0.1000000E+00  0.0000000E+00  0.3000000E-01
      1        -28.048842   1.000000
      2        -14.840003   1.000000
      3        -12.585451   1.000000
      4        -11.231933   1.000000
      5         -5.189796   1.000000
      6         -0.245420   0.000000
      7          1.586464   0.000000
      8          3.329497   0.000000
      9          4.661140   0.000000
     10          4.776906   0.000000
     11          5.814187   0.000000
     12          6.890045   0.000000
     13          8.381960   0.000000
     14         10.228531   0.000000
     15         12.005251   0.000000
     16         14.687756   0.000000
 
  0.2500000E+00  0.1000000E+00  0.0000000E+00  0.3000000E-01
      1        -27.288168   1.000000
      2        -16.380323   1.000000
      3        -11.998367   1.000000
      4        -11.748523   1.000000
      5         -5.338985   1.000000
      6         -0.322619   0.000000
      7          2.099517   0.000000
      8          3.271578   0.000000
      9          5.666822   0.000000
     10          5.770374   0.000000
     11          6.803672   0.000000
     12          7.906958   0.000000
     13          9.277014   0.000000
     14         11.194527   0.000000
     15         12.738981   0.000000
     16         15.149611   0.000000
 
  0.3000000E+00  0.1000000E+00  0.0000000E+00  0.3000000E-01
      1        -26.412858   1.000000
      2        -17.924157   1.000000
      3        -12.280810   1.000000
      4        -11.186048   1.000000
      5         -5.688441   1.000000
      6         -0.274643   0.000000
      7          2.365171   0.000000
      8          3.168442   0.000000
      9          6.810854   0.000000
     10          6.941351   0.000000
     11          7.965033   0.000000
     12          9.104094   0.000000
     13         10.324914   0.000000
     14         12.306044   0.000000
     15         13.595065   0.000000
     16         15.139426   0.000000
 
  0.3500000E+00  0.1000000E+00  0.0000000E+00  0.3000000E-01
      1        -25.454955   1.000000
      2        -19.385237   1.000000
      3        -12.607987   1.000000
      4        -10.418983   1.000000
      5         -6.207381   1.000000
      6         -0.130557   0.000000
      7          2.222084   0.000000
      8          3.299806   0.000000
      9          8.036900   0.000000
     10          8.304086   0.000000
     11          9.298029   0.000000
     12         10.470310   0.000000
     13         11.491155   0.000000
     14         13.359362   0.000000
     15         14.276977   0.000000
     16         14.536561   0.000000
 
  0.4000000E+00  0.1000000E+00  0.0000000E+00  0.3000000E-01
      1        -24.517616   1.000000
      2        -20.633612   1.000000
      3        -12.808365   1.000000
      4         -9.724445   1.000000
      5         -6.768070   1.000000
      6          0.031460   0.000000
      7          1.964823   0.000000
      8          3.482408   0.000000
      9          9.278153   0.000000
     10          9.839181   0.000000
     11         10.793631   0.000000
     12         11.879203   0.000000
     13         12.411621   0.000000
     14         13.029240   0.000000
     15         13.558805   0.000000
     16         14.491701   0.000000
 
  0.4500000E+00  0.1000000E+00  0.0000000E+00  0.1500000E-01
      1        -24.018563   1.000000
      2        -21.238437   1.000000
      3        -12.875572   1.000000
      4         -9.395396   1.000000
      5         -7.056094   1.000000
      6          0.106025   0.000000
      7          1.850098   0.000000
      8          3.555177   0.000000
      9         10.097188   0.000000
     10         11.305459   0.000000
     11         11.554390   0.000000
     12         11.658957   0.000000
     13         12.512782   0.000000
     14         12.691098   0.000000
     15         13.697966   0.000000
     16         13.745066   0.000000
 
  0.1500000E+00  0.1500000E+00  0.0000000E+00  0.1500000E-01
      1        -28.118419   1.000000
      2        -14.545061   1.000000
      3        -12.624548   1.000000
      4        -11.446178   1.000000
      5         -5.173989   1.000000
      6          0.375290   0.000000
      7          1.038710   0.000000
      8          3.388598   0.000000
      9          4.572047   0.000000
     10          4.660100   0.000000
     11          5.713363   0.000000
     12          6.798653   0.000000
     13          8.291025   0.000000
     14         10.142919   0.000000
     15         11.926673   0.000000
     16         14.663562   0.000000
 
  0.2000000E+00  0.1500000E+00  0.0000000E+00  0.3000000E-01
      1        -27.423949   1.000000
      2        -15.841920   1.000000
      3        -12.260163   1.000000
      4        -12.032441   1.000000
      5         -5.262666   1.000000
      6          0.499945   0.000000
      7          1.473786   0.000000
      8          3.402786   0.000000
      9          5.496690   0.000000
     10          5.551278   0.000000
     11          6.609133   0.000000
     12          7.724389   0.000000
     13          9.095518   0.000000
     14         11.026843   0.000000
     15         12.569904   0.000000
     16         15.254191   0.000000
 
  0.2500000E+00  0.1500000E+00  0.0000000E+00  0.3000000E-01
      1        -26.607453   1.000000
      2        -17.244118   1.000000
      3        -12.906988   1.000000
      4        -11.344307   1.000000
      5         -5.516439   1.000000
      6          0.541275   0.000000
      7          1.921027   0.000000
      8          3.300237   0.000000
      9          6.573149   0.000000
     10          6.634232   0.000000
     11          7.688413   0.000000
     12          8.831038   0.000000
     13         10.068814   0.000000
     14         12.066766   0.000000
     15         13.344597   0.000000
     16         15.237956   0.000000
 
  0.3000000E+00  0.1500000E+00  0.0000000E+00  0.3000000E-01
      1        -25.688760   1.000000
      2        -18.658346   1.000000
      3        -13.392565   1.000000
      4        -10.586240   1.000000
      5         -5.945862   1.000000
      6          0.654600   0.000000
      7          2.023240   0.000000
      8          3.348100   0.000000
      9          7.755517   0.000000
     10          7.915946   0.000000
     11          8.945061   0.000000
     12         10.111613   0.000000
     13         11.197229   0.000000
     14         13.192442   0.000000
     15         14.158155   0.000000
     16         14.917006   0.000000
 
  0.3500000E+00  0.1500000E+00  0.0000000E+00  0.3000000E-01
      1        -24.720172   1.000000
      2        -19.982406   1.000000
      3        -13.712841   1.000000
      4         -9.832936   1.000000
      5         -6.492759   1.000000
      6          0.851358   0.000000
      7          1.784634   0.000000
      8          3.577578   0.000000
      9          9.005161   0.000000
     10          9.370627   0.000000
     11         10.374788   0.000000
     12         11.536066   0.000000
     13         12.406073   0.000000
     14         13.443818   0.000000
     15         14.386038   0.000000
     16         14.817645   0.000000
 
  0.4000000E+00  0.1500000E+00  0.0000000E+00  0.3000000E-01
      1        -23.904622   1.000000
      2        -20.982145   1.000000
      3        -13.871831   1.000000
      4         -9.259655   1.000000
      5         -6.969165   1.000000
      6          1.114479   0.000000
      7          1.452555   0.000000
      8          3.753532   0.000000
      9         10.182927   0.000000
     10         10.952349   0.000000
     11         11.830031   0.000000
     12         12.195123   0.000000
     13         12.728127   0.000000
     14         13.259537   0.000000
     15         13.859585   0.000000
     16         14.103263   0.000000
 
  0.2000000E+00  0.2000000E+00  0.0000000E+00  0.1500000E-01
      1        -26.672950   1.000000
      2        -16.944050   1.000000
      3        -13.201454   1.000000
      4        -11.399305   1.000000
      5         -5.456456   1.000000
      6          1.250964   0.000000
      7          1.356176   0.000000
      8          3.373335   0.000000
      9          6.500170   0.000000
     10          6.514660   0.000000
     11          7.591888   0.000000
     12          8.740318   0.000000
     13          9.976446   0.000000
     14         11.987709   0.000000
     15         13.242164   0.000000
     16         15.254967   0.000000
 
  0.2500000E+00  0.2000000E+00  0.0000000E+00  0.3000000E-01
      1        -25.808735   1.000000
      2        -18.140048   1.000000
      3        -13.968599   1.000000
      4        -10.676194   1.000000
      5         -5.796014   1.000000
      6          1.175717   0.000000
      7          1.893003   0.000000
      8          3.391073   0.000000
      9          7.608174   0.000000
     10          7.709654   0.000000
     11          8.762450   0.000000
     12          9.932033   0.000000
     13         11.029362   0.000000
     14         13.073069   0.000000
     15         13.912621   0.000000
     16         15.188520   0.000000
 
  0.3000000E+00  0.2000000E+00  0.0000000E+00  0.3000000E-01
      1        -24.860281   1.000000
      2        -19.374206   1.000000
      3        -14.506566   1.000000
      4         -9.918110   1.000000
      5         -6.271706   1.000000
      6          1.007492   0.000000
      7          2.238128   0.000000
      8          3.581082   0.000000
      9          8.831150   0.000000
     10          9.076183   0.000000
     11         10.115152   0.000000
     12         11.284257   0.000000
     13         12.234762   0.000000
     14         13.832972   0.000000
     15         14.309629   0.000000
     16         15.121141   0.000000
 
  0.3500000E+00  0.2000000E+00  0.0000000E+00  0.3000000E-01
      1        -23.917724   1.000000
      2        -20.510662   1.000000
      3        -14.820446   1.000000
      4         -9.219425   1.000000
      5         -6.801403   1.000000
      6          0.875243   0.000000
      7          2.357088   0.000000
      8          3.842832   0.000000
      9         10.087911   0.000000
     10         10.588105   0.000000
     11         11.636752   0.000000
     12         12.582252   0.000000
     13         13.219705   0.000000
     14         13.409503   0.000000
     15         14.276701   0.000000
     16         14.886713   0.000000
 
  0.4000000E+00  0.2000000E+00  0.0000000E+00  0.1500000E-01
      1        -23.392614   1.000000
      2        -21.104046   1.000000
      3        -14.922770   1.000000
      4         -8.869452   1.000000
      5         -7.094980   1.000000
      6          0.825306   0.000000
      7          2.381865   0.000000
      8          3.959316   0.000000
      9         10.968099   0.000000
     10         11.765782   0.000000
     11         12.377798   0.000000
     12         12.411299   0.000000
     13         13.370427   0.000000
     14         13.453343   0.000000
     15         14.269751   0.000000
     16         14.508836   0.000000
 
  0.2500000E+00  0.2500000E+00  0.0000000E+00  0.1500000E-01
      1        -24.909440   1.000000
      2        -19.101999   1.000000
      3        -14.845002   1.000000
      4         -9.949433   1.000000
      5         -6.186863   1.000000
      6          0.957853   0.000000
      7          2.561970   0.000000
      8          3.552745   0.000000
      9          8.769609   0.000000
     10          8.974309   0.000000
     11         10.026463   0.000000
     12         11.198436   0.000000
     13         12.156443   0.000000
     14         13.957883   0.000000
     15         14.077008   0.000000
     16         15.672509   0.000000
 
  0.3000000E+00  0.2500000E+00  0.0000000E+00  0.3000000E-01
      1        -23.951481   1.000000
      2        -20.116982   1.000000
      3        -15.443758   1.000000
      4         -9.217703   1.000000
      5         -6.672868   1.000000
      6          0.632769   0.000000
      7          3.119379   0.000000
      8          3.796438   0.000000
      9         10.017849   0.000000
     10         10.394748   0.000000
     11         11.473762   0.000000
     12         12.573636   0.000000
     13         13.308196   0.000000
     14         13.627019   0.000000
     15         14.335004   0.000000
     16         15.616873   0.000000
 
  0.3500000E+00  0.2500000E+00  0.0000000E+00  0.3000000E-01
      1        -23.097160   1.000000
      2        -21.010121   1.000000
      3        -15.739847   1.000000
      4         -8.619675   1.000000
      5         -7.141474   1.000000
      6          0.440043   0.000000
      7          3.336360   0.000000
      8          4.043833   0.000000
      9         11.212802   0.000000
     10         11.837000   0.000000
     11         12.707353   0.000000
     12         13.062250   0.000000
     13         13.487675   0.000000
     14         14.077316   0.000000
     15         14.615810   0.000000
     16         14.987575   0.000000
 
  0.3000000E+00  0.3000000E+00  0.0000000E+00  0.1500000E-01
      1        -23.013345   1.000000
      2        -20.918404   1.000000
      3        -16.061840   1.000000
      4         -8.536912   1.000000
      5         -7.145957   1.000000
      6          0.297227   0.000000
      7          3.816859   0.000000
      8          3.960271   0.000000
      9         11.222008   0.000000
     10         11.793973   0.000000
     11         12.989281   0.000000
     12         13.009481   0.000000
     13         13.485266   0.000000
     14         14.475715   0.000000
     15         14.695692   0.000000
     16         15.492987   0.000000
 
  0.3500000E+00  0.3000000E+00  0.0000000E+00  0.1500000E-01
      1        -22.355814   1.000000
      2        -21.525285   1.000000
      3        -16.276123   1.000000
      4         -8.093482   1.000000
      5         -7.514655   1.000000
      6          0.172035   0.000000
      7          3.968860   0.000000
      8          4.131781   0.000000
      9         12.085973   0.000000
     10         12.386017   0.000000
     11         12.796692   0.000000
     12         13.683049   0.000000
     13         14.172018   0.000000
     14         14.699419   0.000000
     15         14.750560   0.000000
     16         15.415718   0.000000
