    2    2    1    1
  0.7464293E+02  0.3282343E-09  0.3282343E-09  0.1600000E-08  0.1000000E-16
  1.000000000000000E-004
  CAR 
 unknown system                          
     10     24     16
 
  0.0000000E+00  0.0000000E+00  0.0000000E+00  0.5102041E-02
      1        -17.472542   1.000000
      2         -9.758690   1.000000
      3         -3.766196   1.000000
      4         -3.496302   1.000000
      5         -3.496302   1.000000
      6          0.374357   0.000000
      7          0.527709   0.000000
      8          0.527709   0.000000
      9          2.024607   0.000000
     10          2.462083   0.000000
     11          3.813953   0.000000
     12          4.439427   0.000000
     13          6.478718   0.000000
     14          6.478718   0.000000
     15          6.916179   0.000000
     16          7.565769   0.000000
 
  0.7142857E-01  0.0000000E+00  0.0000000E+00  0.3061224E-01
      1        -17.390499   1.000000
      2         -9.703993   1.000000
      3         -4.177453   1.000000
      4         -3.717912   1.000000
      5         -3.682526   1.000000
      6          0.280108   0.000000
      7          0.765192   0.000000
      8          1.052718   0.000000
      9          2.128798   0.000000
     10          2.546601   0.000000
     11          3.874770   0.000000
     12          4.531522   0.000000
     13          5.804382   0.000000
     14          6.343593   0.000000
     15          7.125456   0.000000
     16          7.518838   0.000000
 
  0.1428571E+00  0.0000000E+00  0.0000000E+00  0.3061224E-01
      1        -17.145597   1.000000
      2         -9.562690   1.000000
      3         -5.504713   1.000000
      4         -4.113804   1.000000
      5         -3.588919   1.000000
      6         -0.254950   0.000000
      7          1.295293   0.000000
      8          2.070551   0.000000
      9          2.459026   0.000000
     10          2.825907   0.000000
     11          4.010136   0.000000
     12          4.805352   0.000000
     13          5.041051   0.000000
     14          6.208050   0.000000
     15          6.863390   0.000000
     16          7.637196   0.000000
 
  0.2142857E+00 -0.1387779E-16  0.0000000E+00  0.3061224E-01
      1        -16.741935   1.000000
      2         -9.454800   1.000000
      3         -6.789264   1.000000
      4         -4.601214   1.000000
      5         -3.442044   1.000000
      6         -0.863945   0.000000
      7          1.777007   0.000000
      8          2.040826   0.000000
      9          2.823739   0.000000
     10          3.352853   0.000000
     11          4.469756   0.000000
     12          5.211910   0.000000
     13          5.396686   0.000000
     14          6.235127   0.000000
     15          6.455739   0.000000
     16          8.045194   0.000000
 
  0.2857143E+00  0.0000000E+00  0.0000000E+00  0.3061224E-01
      1        -16.188902   1.000000
      2         -9.794348   1.000000
      3         -7.456139   1.000000
      4         -5.034931   1.000000
      5         -3.441191   1.000000
      6         -1.319001   0.000000
      7          1.230479   0.000000
      8          2.002570   0.000000
      9          3.462766   0.000000
     10          3.871288   0.000000
     11          4.725704   0.000000
     12          5.689582   0.000000
     13          6.058587   0.000000
     14          6.845457   0.000000
     15          7.268993   0.000000
     16          8.455101   0.000000
 
  0.3571429E+00  0.0000000E+00  0.0000000E+00  0.3061224E-01
      1        -15.509795   1.000000
      2        -10.755228   1.000000
      3         -7.280409   1.000000
      4         -5.366003   1.000000
      5         -3.792260   1.000000
      6         -1.447983   0.000000
      7          0.560222   0.000000
      8          2.024567   0.000000
      9          3.794745   0.000000
     10          4.318311   0.000000
     11          5.030702   0.000000
     12          6.291087   0.000000
     13          6.810616   0.000000
     14          7.901611   0.000000
     15          8.518888   0.000000
     16          8.903521   0.000000
 
  0.4285714E+00 -0.2775558E-16  0.0000000E+00  0.3061224E-01
      1        -14.782473   1.000000
      2        -11.787751   1.000000
      3         -6.792181   1.000000
      4         -5.571284   1.000000
      5         -4.374208   1.000000
      6         -1.394353   0.000000
      7          0.238960   0.000000
      8          1.982635   0.000000
      9          3.299460   0.000000
     10          5.310435   0.000000
     11          5.912187   0.000000
     12          6.954999   0.000000
     13          7.694317   0.000000
     14          7.845823   0.000000
     15          8.110221   0.000000
     16          8.807747   0.000000
 
  0.5000000E+00 -0.5551115E-16  0.0000000E+00  0.1530612E-01
      1        -14.362039   1.000000
      2        -12.323347   1.000000
      3         -6.491514   1.000000
      4         -5.640829   1.000000
      5         -4.715384   1.000000
      6         -1.366737   0.000000
      7          0.178015   0.000000
      8          1.960324   0.000000
      9          3.068572   0.000000
     10          6.390907   0.000000
     11          6.403032   0.000000
     12          6.851099   0.000000
     13          7.218342   0.000000
     14          7.711453   0.000000
     15          8.488099   0.000000
     16          8.943038   0.000000
 
  0.7142857E-01  0.7142857E-01  0.0000000E+00  0.3061224E-01
      1        -17.227017   1.000000
      2         -9.605111   1.000000
      3         -5.081879   1.000000
      4         -4.084114   1.000000
      5         -3.628921   1.000000
      6          0.307280   0.000000
      7          0.659772   0.000000
      8          1.977164   0.000000
      9          2.375078   0.000000
     10          2.706733   0.000000
     11          3.953290   0.000000
     12          4.715004   0.000000
     13          5.193345   0.000000
     14          6.063150   0.000000
     15          7.369386   0.000000
     16          7.396771   0.000000
 
  0.1428571E+00  0.7142857E-01  0.0000000E+00  0.6122449E-01
      1        -16.902541   1.000000
      2         -9.468052   1.000000
      3         -6.271433   1.000000
      4         -4.684723   1.000000
      5         -3.486238   1.000000
      6         -0.147891   0.000000
      7          1.155424   0.000000
      8          2.476429   0.000000
      9          2.707155   0.000000
     10          3.092371   0.000000
     11          4.013185   0.000000
     12          4.942285   0.000000
     13          5.079949   0.000000
     14          6.194439   0.000000
     15          7.026177   0.000000
     16          7.782104   0.000000
 
  0.2142857E+00  0.7142857E-01  0.0000000E+00  0.6122449E-01
      1        -16.423293   1.000000
      2         -9.541630   1.000000
      3         -7.221318   1.000000
      4         -5.236771   1.000000
      5         -3.390169   1.000000
      6         -0.677813   0.000000
      7          1.564722   0.000000
      8          1.865946   0.000000
      9          3.189320   0.000000
     10          3.642164   0.000000
     11          4.465397   0.000000
     12          5.386067   0.000000
     13          5.606620   0.000000
     14          6.236243   0.000000
     15          7.544753   0.000000
     16          8.231745   0.000000
 
  0.2857143E+00  0.7142857E-01  0.0000000E+00  0.6122449E-01
      1        -15.803552   1.000000
      2        -10.245383   1.000000
      3         -7.388427   1.000000
      4         -5.661551   1.000000
      5         -3.538852   1.000000
      6         -0.979345   0.000000
      7          1.031347   0.000000
      8          1.702935   0.000000
      9          3.883461   0.000000
     10          4.117624   0.000000
     11          4.810049   0.000000
     12          5.995699   0.000000
     13          6.406952   0.000000
     14          6.516633   0.000000
     15          8.532017   0.000000
     16          9.044906   0.000000
 
  0.3571429E+00  0.7142857E-01  0.0000000E+00  0.6122449E-01
      1        -15.083096   1.000000
      2        -11.291108   1.000000
      3         -7.030242   1.000000
      4         -5.910750   1.000000
      5         -4.029971   1.000000
      6         -0.957940   0.000000
      7          0.440695   0.000000
      8          1.731109   0.000000
      9          3.674205   0.000000
     10          4.872468   0.000000
     11          5.503990   0.000000
     12          6.708919   0.000000
     13          7.350368   0.000000
     14          7.469667   0.000000
     15          8.619169   0.000000
     16          8.718903   0.000000
 
  0.4285714E+00  0.7142857E-01  0.0000000E+00  0.6122449E-01
      1        -14.424936   1.000000
      2        -12.161437   1.000000
      3         -6.689408   1.000000
      4         -5.907325   1.000000
      5         -4.589412   1.000000
      6         -0.826370   0.000000
      7          0.135840   0.000000
      8          1.789926   0.000000
      9          3.210880   0.000000
     10          5.945934   0.000000
     11          6.469663   0.000000
     12          7.118510   0.000000
     13          7.416882   0.000000
     14          7.833725   0.000000
     15          8.385753   0.000000
     16          8.458102   0.000000
 
  0.1428571E+00  0.1428571E+00  0.0000000E+00  0.3061224E-01
      1        -16.501931   1.000000
      2         -9.472663   1.000000
      3         -6.983623   1.000000
      4         -5.544655   1.000000
      5         -3.382240   1.000000
      6          0.120557   0.000000
      7          0.959926   0.000000
      8          2.606221   0.000000
      9          3.101667   0.000000
     10          3.136760   0.000000
     11          3.931809   0.000000
     12          5.191463   0.000000
     13          5.503876   0.000000
     14          6.491210   0.000000
     15          7.764544   0.000000
     16          7.965015   0.000000
 
  0.2142857E+00  0.1428571E+00  0.0000000E+00  0.6122449E-01
      1        -15.952883   1.000000
      2         -9.913193   1.000000
      3         -7.275809   1.000000
      4         -6.251843   1.000000
      5         -3.408432   1.000000
      6         -0.105647   0.000000
      7          0.985543   0.000000
      8          2.059951   0.000000
      9          3.578320   0.000000
     10          3.813000   0.000000
     11          4.471378   0.000000
     12          5.697078   0.000000
     13          5.821109   0.000000
     14          6.395450   0.000000
     15          8.074239   0.000000
     16          9.246683   0.000000
 
  0.2857143E+00  0.1428571E+00  0.0000000E+00  0.6122449E-01
      1        -15.277198   1.000000
      2        -10.812207   1.000000
      3         -7.170873   1.000000
      4         -6.579004   1.000000
      5         -3.722737   1.000000
      6         -0.280165   0.000000
      7          0.815790   0.000000
      8          1.622614   0.000000
      9          4.038207   0.000000
     10          4.640510   0.000000
     11          5.247893   0.000000
     12          5.849215   0.000000
     13          6.486729   0.000000
     14          7.102634   0.000000
     15          8.049749   0.000000
     16          9.402255   0.000000
 
  0.3571429E+00  0.1428571E+00  0.0000000E+00  0.6122449E-01
      1        -14.545958   1.000000
      2        -11.785079   1.000000
      3         -7.253381   1.000000
      4         -6.253545   1.000000
      5         -4.285172   1.000000
      6         -0.261561   0.000000
      7          0.561704   0.000000
      8          1.555179   0.000000
      9          3.641837   0.000000
     10          5.613779   0.000000
     11          6.156476   0.000000
     12          6.790786   0.000000
     13          7.205106   0.000000
     14          8.010694   0.000000
     15          8.236876   0.000000
     16          8.441286   0.000000
 
  0.4285714E+00  0.1428571E+00  0.0000000E+00  0.3061224E-01
      1        -14.109615   1.000000
      2        -12.315316   1.000000
      3         -7.322474   1.000000
      4         -5.919702   1.000000
      5         -4.667361   1.000000
      6         -0.216424   0.000000
      7          0.442672   0.000000
      8          1.611149   0.000000
      9          3.358946   0.000000
     10          6.585943   0.000000
     11          6.864028   0.000000
     12          7.001634   0.000000
     13          7.127968   0.000000
     14          7.765858   0.000000
     15          8.044241   0.000000
     16          9.179090   0.000000
 
  0.2142857E+00  0.2142857E+00  0.0000000E+00  0.3061224E-01
      1        -15.343812   1.000000
      2        -10.593773   1.000000
      3         -7.164099   1.000000
      4         -6.947367   1.000000
      5         -3.604235   1.000000
      6          0.217195   0.000000
      7          0.357779   0.000000
      8          2.659998   0.000000
      9          3.507834   0.000000
     10          4.507791   0.000000
     11          5.095064   0.000000
     12          5.431780   0.000000
     13          6.303172   0.000000
     14          7.035203   0.000000
     15          7.628555   0.000000
     16          9.881262   0.000000
 
  0.2857143E+00  0.2142857E+00  0.0000000E+00  0.6122449E-01
      1        -14.628725   1.000000
      2        -11.447720   1.000000
      3         -7.775114   1.000000
      4         -6.405567   1.000000
      5         -4.030821   1.000000
      6         -0.369717   0.000000
      7          0.817827   0.000000
      8          2.448622   0.000000
      9          4.050427   0.000000
     10          5.410731   0.000000
     11          5.484427   0.000000
     12          5.863121   0.000000
     13          6.694638   0.000000
     14          7.814864   0.000000
     15          7.941025   0.000000
     16          9.261376   0.000000
 
  0.3571429E+00  0.2142857E+00  0.0000000E+00  0.6122449E-01
      1        -13.941312   1.000000
      2        -12.236537   1.000000
      3         -8.072586   1.000000
      4         -5.831458   1.000000
      5         -4.560027   1.000000
      6         -0.676006   0.000000
      7          1.388075   0.000000
      8          1.971412   0.000000
      9          3.914207   0.000000
     10          5.925631   0.000000
     11          6.570270   0.000000
     12          6.813314   0.000000
     13          7.504240   0.000000
     14          7.846702   0.000000
     15          8.381216   0.000000
     16          8.806112   0.000000
 
  0.2857143E+00  0.2857143E+00  0.0000000E+00  0.3061224E-01
      1        -13.901259   1.000000
      2        -12.145909   1.000000
      3         -8.388223   1.000000
      4         -5.815349   1.000000
      5         -4.465497   1.000000
      6         -0.893836   0.000000
      7          1.405227   0.000000
      8          2.640471   0.000000
      9          4.645492   0.000000
     10          5.438716   0.000000
     11          5.877729   0.000000
     12          6.472138   0.000000
     13          7.252568   0.000000
     14          8.422498   0.000000
     15          8.791629   0.000000
     16          8.881196   0.000000
 
  0.3571429E+00  0.2857143E+00  0.0000000E+00  0.3061224E-01
      1        -13.360103   1.000000
      2        -12.675149   1.000000
      3         -8.604150   1.000000
      4         -5.365575   1.000000
      5         -4.849916   1.000000
      6         -1.102882   0.000000
      7          1.923327   0.000000
      8          2.270877   0.000000
      9          4.795511   0.000000
     10          5.573554   0.000000
     11          6.770848   0.000000
     12          7.186673   0.000000
     13          7.553040   0.000000
     14          7.755015   0.000000
     15          8.375125   0.000000
     16          8.480309   0.000000
