    2    2    1    1
  0.7464293E+02  0.3282343E-09  0.3282343E-09  0.1600000E-08  0.5000000E-15
  1.000000000000000E-004
  CAR 
 unknown system                          
     10    100     16
 
  0.0000000E+00  0.0000000E+00  0.0000000E+00  0.5102041E-02
      1        -17.473171   1.000000
      2         -9.759214   1.000000
      3         -3.768698   1.000000
      4         -3.555346   1.000000
      5         -3.435135   1.000000
      6          0.367753   0.000000
      7          0.468688   0.000000
      8          0.591588   0.000000
      9          2.024452   0.000000
     10          2.462088   0.000000
     11          3.813969   0.000000
     12          4.439329   0.000000
     13          6.441615   0.000000
     14          6.516039   0.000000
     15          6.916154   0.000000
     16          7.565590   0.000000
 
  0.7142857E-01  0.0000000E+00  0.0000000E+00  0.1020408E-01
      1        -17.391070   1.000000
      2         -9.704588   1.000000
      3         -4.195988   1.000000
      4         -3.727220   1.000000
      5         -3.654386   1.000000
      6          0.278996   0.000000
      7          0.759377   0.000000
      8          1.058091   0.000000
      9          2.128815   0.000000
     10          2.546557   0.000000
     11          3.874530   0.000000
     12          4.531429   0.000000
     13          5.793296   0.000000
     14          6.353071   0.000000
     15          7.125198   0.000000
     16          7.518744   0.000000
 
  0.0000000E+00  0.7142857E-01  0.0000000E+00  0.1020408E-01
      1        -17.390962   1.000000
      2         -9.704710   1.000000
      3         -4.215640   1.000000
      4         -3.722336   1.000000
      5         -3.638301   1.000000
      6          0.296906   0.000000
      7          0.730082   0.000000
      8          1.069909   0.000000
      9          2.129191   0.000000
     10          2.546471   0.000000
     11          3.874117   0.000000
     12          4.531447   0.000000
     13          5.778637   0.000000
     14          6.364520   0.000000
     15          7.124662   0.000000
     16          7.519026   0.000000
 
 -0.7142857E-01  0.7142857E-01  0.0000000E+00  0.1020408E-01
      1        -17.391369   1.000000
      2         -9.704249   1.000000
      3         -4.131539   1.000000
      4         -3.735268   1.000000
      5         -3.715094   1.000000
      6          0.245971   0.000000
      7          0.819951   0.000000
      8          1.030059   0.000000
      9          2.127858   0.000000
     10          2.546801   0.000000
     11          3.875687   0.000000
     12          4.531378   0.000000
     13          5.838620   0.000000
     14          6.315664   0.000000
     15          7.126351   0.000000
     16          7.517721   0.000000
 
  0.1428571E+00  0.0000000E+00  0.0000000E+00  0.1020408E-01
      1        -17.145973   1.000000
      2         -9.563653   1.000000
      3         -5.516732   1.000000
      4         -4.102029   1.000000
      5         -3.588742   1.000000
      6         -0.250036   0.000000
      7          1.286708   0.000000
      8          2.075925   0.000000
      9          2.461668   0.000000
     10          2.825635   0.000000
     11          4.006990   0.000000
     12          4.805362   0.000000
     13          5.030912   0.000000
     14          6.212636   0.000000
     15          6.864537   0.000000
     16          7.635207   0.000000
 
  0.0000000E+00  0.1428571E+00  0.0000000E+00  0.1020408E-01
      1        -17.145508   1.000000
      2         -9.564397   1.000000
      3         -5.533286   1.000000
      4         -4.083820   1.000000
      5         -3.589636   1.000000
      6         -0.234821   0.000000
      7          1.266870   0.000000
      8          2.086721   0.000000
      9          2.467240   0.000000
     10          2.825277   0.000000
     11          4.001360   0.000000
     12          4.805609   0.000000
     13          5.014041   0.000000
     14          6.218747   0.000000
     15          6.867235   0.000000
     16          7.631993   0.000000
 
 -0.1428571E+00  0.1428571E+00  0.0000000E+00  0.1020408E-01
      1        -17.147264   1.000000
      2         -9.561588   1.000000
      3         -5.467795   1.000000
      4         -4.154959   1.000000
      5         -3.588122   1.000000
      6         -0.285930   0.000000
      7          1.335362   0.000000
      8          2.046568   0.000000
      9          2.448322   0.000000
     10          2.826610   0.000000
     11          4.021384   0.000000
     12          4.804757   0.000000
     13          5.078758   0.000000
     14          6.192979   0.000000
     15          6.857010   0.000000
     16          7.644241   0.000000
 
  0.2142857E+00 -0.1387779E-16  0.0000000E+00  0.1020408E-01
      1        -16.741915   1.000000
      2         -9.457363   1.000000
      3         -6.797637   1.000000
      4         -4.591851   1.000000
      5         -3.443010   1.000000
      6         -0.859012   0.000000
      7          1.766219   0.000000
      8          2.053462   0.000000
      9          2.823901   0.000000
     10          3.354466   0.000000
     11          4.468129   0.000000
     12          5.209760   0.000000
     13          5.387091   0.000000
     14          6.232646   0.000000
     15          6.457492   0.000000
     16          8.043641   0.000000
 
  0.0000000E+00  0.2142857E+00  0.0000000E+00  0.1020408E-01
      1        -16.740727   1.000000
      2         -9.460819   1.000000
      3         -6.809664   1.000000
      4         -4.577350   1.000000
      5         -3.444567   1.000000
      6         -0.846421   0.000000
      7          1.756491   0.000000
      8          2.065139   0.000000
      9          2.824171   0.000000
     10          3.357437   0.000000
     11          4.465468   0.000000
     12          5.205722   0.000000
     13          5.372680   0.000000
     14          6.230344   0.000000
     15          6.457684   0.000000
     16          8.041131   0.000000
 
 -0.2142857E+00  0.2142857E+00  0.0000000E+00  0.1020408E-01
      1        -16.745212   1.000000
      2         -9.447799   1.000000
      3         -6.762736   1.000000
      4         -4.634256   1.000000
      5         -3.439526   1.000000
      6         -0.890066   0.000000
      7          1.801339   0.000000
      8          2.010238   0.000000
      9          2.822983   0.000000
     10          3.346787   0.000000
     11          4.474712   0.000000
     12          5.218091   0.000000
     13          5.431565   0.000000
     14          6.240329   0.000000
     15          6.453185   0.000000
     16          8.050716   0.000000
 
  0.2857143E+00  0.0000000E+00  0.0000000E+00  0.1020408E-01
      1        -16.188117   1.000000
      2         -9.801535   1.000000
      3         -7.458994   1.000000
      4         -5.027147   1.000000
      5         -3.443542   1.000000
      6         -1.314599   0.000000
      7          1.234411   0.000000
      8          2.003189   0.000000
      9          3.462728   0.000000
     10          3.872952   0.000000
     11          4.723967   0.000000
     12          5.687162   0.000000
     13          6.056907   0.000000
     14          6.834097   0.000000
     15          7.269451   0.000000
     16          8.453587   0.000000
 
  0.0000000E+00  0.2857143E+00  0.0000000E+00  0.1020408E-01
      1        -16.185543   1.000000
      2         -9.812807   1.000000
      3         -7.462365   1.000000
      4         -5.015037   1.000000
      5         -3.447040   1.000000
      6         -1.303824   0.000000
      7          1.249151   0.000000
      8          1.994950   0.000000
      9          3.462790   0.000000
     10          3.875967   0.000000
     11          4.721212   0.000000
     12          5.683142   0.000000
     13          6.054237   0.000000
     14          6.821287   0.000000
     15          7.264885   0.000000
     16          8.451731   0.000000
 
 -0.2857143E+00  0.2857143E+00  0.0000000E+00  0.1020408E-01
      1        -16.195248   1.000000
      2         -9.770041   1.000000
      3         -7.448928   1.000000
      4         -5.062690   1.000000
      5         -3.434334   1.000000
      6         -1.341519   0.000000
      7          1.201211   0.000000
      8          2.015667   0.000000
      9          3.462464   0.000000
     10          3.864876   0.000000
     11          4.731288   0.000000
     12          5.698028   0.000000
     13          6.064573   0.000000
     14          6.875478   0.000000
     15          7.275731   0.000000
     16          8.459229   0.000000
 
  0.3571429E+00  0.0000000E+00  0.0000000E+00  0.1020408E-01
      1        -15.507446   1.000000
      2        -10.766119   1.000000
      3         -7.279429   1.000000
      4         -5.359179   1.000000
      5         -3.796600   1.000000
      6         -1.444111   0.000000
      7          0.567237   0.000000
      8          2.025229   0.000000
      9          3.792186   0.000000
     10          4.318241   0.000000
     11          5.028883   0.000000
     12          6.289964   0.000000
     13          6.810309   0.000000
     14          7.896484   0.000000
     15          8.514427   0.000000
     16          8.905148   0.000000
 
  0.0000000E+00  0.3571429E+00  0.0000000E+00  0.1020408E-01
      1        -15.502040   1.000000
      2        -10.783831   1.000000
      3         -7.276561   1.000000
      4         -5.348506   1.000000
      5         -3.803348   1.000000
      6         -1.434140   0.000000
      7          0.583290   0.000000
      8          2.020803   0.000000
      9          3.788278   0.000000
     10          4.318280   0.000000
     11          5.025798   0.000000
     12          6.288103   0.000000
     13          6.809913   0.000000
     14          7.889974   0.000000
     15          8.511043   0.000000
     16          8.905394   0.000000
 
 -0.3571429E+00  0.3571429E+00  0.0000000E+00  0.1020408E-01
      1        -15.522343   1.000000
      2        -10.716494   1.000000
      3         -7.287283   1.000000
      4         -5.390560   1.000000
      5         -3.778162   1.000000
      6         -1.468759   0.000000
      7          0.526515   0.000000
      8          2.030931   0.000000
      9          3.802812   0.000000
     10          4.318070   0.000000
     11          5.037465   0.000000
     12          6.295208   0.000000
     13          6.811384   0.000000
     14          7.915487   0.000000
     15          8.527246   0.000000
     16          8.898838   0.000000
 
  0.4285714E+00 -0.2775558E-16  0.0000000E+00  0.1020408E-01
      1        -14.776585   1.000000
      2        -11.802523   1.000000
      3         -6.788339   1.000000
      4         -5.565029   1.000000
      5         -4.381298   1.000000
      6         -1.391037   0.000000
      7          0.248801   0.000000
      8          1.983344   0.000000
      9          3.292996   0.000000
     10          5.310403   0.000000
     11          5.911577   0.000000
     12          6.954796   0.000000
     13          7.695220   0.000000
     14          7.843835   0.000000
     15          8.110311   0.000000
     16          8.806900   0.000000
 
  0.0000000E+00  0.4285714E+00  0.0000000E+00  0.1020408E-01
      1        -14.764750   1.000000
      2        -11.827297   1.000000
      3         -6.780614   1.000000
      4         -5.555096   1.000000
      5         -4.392906   1.000000
      6         -1.381085   0.000000
      7          0.267458   0.000000
      8          1.980575   0.000000
      9          3.282236   0.000000
     10          5.310553   0.000000
     11          5.910567   0.000000
     12          6.954909   0.000000
     13          7.697086   0.000000
     14          7.841012   0.000000
     15          8.111269   0.000000
     16          8.806805   0.000000
 
 -0.4285714E+00  0.4285714E+00  0.0000000E+00  0.1020408E-01
      1        -14.808687   1.000000
      2        -11.733910   1.000000
      3         -6.809655   1.000000
      4         -5.594132   1.000000
      5         -4.349558   1.000000
      6         -1.414711   0.000000
      7          0.198726   0.000000
      8          1.986066   0.000000
      9          3.322271   0.000000
     10          5.309908   0.000000
     11          5.914417   0.000000
     12          6.954801   0.000000
     13          7.689803   0.000000
     14          7.851895   0.000000
     15          8.108279   0.000000
     16          8.808669   0.000000
 
  0.5000000E+00 -0.5551115E-16  0.0000000E+00  0.5102041E-02
      1        -14.351526   1.000000
      2        -12.342772   1.000000
      3         -6.485095   1.000000
      4         -5.634846   1.000000
      5         -4.725015   1.000000
      6         -1.363649   0.000000
      7          0.189285   0.000000
      8          1.960929   0.000000
      9          3.060679   0.000000
     10          6.389781   0.000000
     11          6.404372   0.000000
     12          6.851769   0.000000
     13          7.217253   0.000000
     14          7.711271   0.000000
     15          8.487092   0.000000
     16          8.943292   0.000000
 
  0.0000000E+00  0.5000000E+00  0.0000000E+00  0.5102041E-02
      1        -14.331109   1.000000
      2        -12.376200   1.000000
      3         -6.472911   1.000000
      4         -5.625102   1.000000
      5         -4.741290   1.000000
      6         -1.353531   0.000000
      7          0.209406   0.000000
      8          1.958666   0.000000
      9          3.047256   0.000000
     10          6.388327   0.000000
     11          6.406965   0.000000
     12          6.853141   0.000000
     13          7.215356   0.000000
     14          7.711713   0.000000
     15          8.485422   0.000000
     16          8.943946   0.000000
 
  0.5000000E+00  0.5000000E+00  0.0000000E+00  0.5102041E-02
      1        -14.405319   1.000000
      2        -12.252279   1.000000
      3         -6.518285   1.000000
      4         -5.663152   1.000000
      5         -4.681073   1.000000
      6         -1.387213   0.000000
      7          0.134272   0.000000
      8          1.962942   0.000000
      9          3.096990   0.000000
     10          6.393771   0.000000
     11          6.397181   0.000000
     12          6.848096   0.000000
     13          7.222739   0.000000
     14          7.710267   0.000000
     15          8.491975   0.000000
     16          8.941520   0.000000
 
  0.7142857E-01  0.7142857E-01  0.0000000E+00  0.1020408E-01
      1        -17.226943   1.000000
      2         -9.606676   1.000000
      3         -5.129579   1.000000
      4         -4.031260   1.000000
      5         -3.629114   1.000000
      6          0.364209   0.000000
      7          0.592990   0.000000
      8          1.988847   0.000000
      9          2.383505   0.000000
     10          2.706297   0.000000
     11          3.949354   0.000000
     12          4.715079   0.000000
     13          5.166939   0.000000
     14          6.065989   0.000000
     15          7.366031   0.000000
     16          7.402704   0.000000
 
 -0.7142857E-01  0.1428571E+00  0.0000000E+00  0.1020408E-01
      1        -17.227858   1.000000
      2         -9.605349   1.000000
      3         -5.071370   1.000000
      4         -4.097302   1.000000
      5         -3.628893   1.000000
      6          0.288531   0.000000
      7          0.679160   0.000000
      8          1.974113   0.000000
      9          2.372587   0.000000
     10          2.706891   0.000000
     11          3.954358   0.000000
     12          4.714825   0.000000
     13          5.199909   0.000000
     14          6.062639   0.000000
     15          7.367886   0.000000
     16          7.397138   0.000000
 
 -0.1428571E+00  0.7142857E-01  0.0000000E+00  0.1020408E-01
      1        -17.228187   1.000000
      2         -9.604874   1.000000
      3         -5.048542   1.000000
      4         -4.123304   1.000000
      5         -3.628127   1.000000
      6          0.263131   0.000000
      7          0.709161   0.000000
      8          1.967587   0.000000
      9          2.368601   0.000000
     10          2.707070   0.000000
     11          3.956063   0.000000
     12          4.714744   0.000000
     13          5.212056   0.000000
     14          6.062011   0.000000
     15          7.370050   0.000000
     16          7.393523   0.000000
 
  0.1428571E+00  0.7142857E-01  0.0000000E+00  0.1020408E-01
      1        -16.901744   1.000000
      2         -9.472082   1.000000
      3         -6.303605   1.000000
      4         -4.646346   1.000000
      5         -3.486986   1.000000
      6         -0.132136   0.000000
      7          1.120685   0.000000
      8          2.497561   0.000000
      9          2.717027   0.000000
     10          3.102054   0.000000
     11          4.010736   0.000000
     12          4.936264   0.000000
     13          5.080772   0.000000
     14          6.168435   0.000000
     15          7.020160   0.000000
     16          7.780857   0.000000
 
 -0.7142857E-01  0.2142857E+00  0.0000000E+00  0.1020408E-01
      1        -16.902929   1.000000
      2         -9.469154   1.000000
      3         -6.277077   1.000000
      4         -4.681122   1.000000
      5         -3.487447   1.000000
      6         -0.136570   0.000000
      7          1.153459   0.000000
      8          2.476376   0.000000
      9          2.710647   0.000000
     10          3.089616   0.000000
     11          3.999560   0.000000
     12          4.934557   0.000000
     13          5.078669   0.000000
     14          6.204719   0.000000
     15          7.029439   0.000000
     16          7.778407   0.000000
 
 -0.2142857E+00  0.1428571E+00  0.0000000E+00  0.1020408E-01
      1        -16.904959   1.000000
      2         -9.464496   1.000000
      3         -6.235924   1.000000
      4         -4.726585   1.000000
      5         -3.485231   1.000000
      6         -0.180020   0.000000
      7          1.193700   0.000000
      8          2.451587   0.000000
      9          2.695187   0.000000
     10          3.086257   0.000000
     11          4.028891   0.000000
     12          4.955913   0.000000
     13          5.080345   0.000000
     14          6.208966   0.000000
     15          7.028873   0.000000
     16          7.786931   0.000000
 
 -0.1428571E+00  0.2142857E+00  0.0000000E+00  0.1020408E-01
      1        -16.904393   1.000000
      2         -9.465852   1.000000
      3         -6.248897   1.000000
      4         -4.710622   1.000000
      5         -3.485425   1.000000
      6         -0.173734   0.000000
      7          1.177581   0.000000
      8          2.462701   0.000000
      9          2.698082   0.000000
     10          3.090128   0.000000
     11          4.030027   0.000000
     12          4.954632   0.000000
     13          5.081022   0.000000
     14          6.196498   0.000000
     15          7.025590   0.000000
     16          7.787037   0.000000
 
  0.7142857E-01  0.1428571E+00  0.0000000E+00  0.1020408E-01
      1        -16.901356   1.000000
      2         -9.472962   1.000000
      3         -6.310524   1.000000
      4         -4.639132   1.000000
      5         -3.487623   1.000000
      6         -0.121158   0.000000
      7          1.113458   0.000000
      8          2.500537   0.000000
      9          2.720930   0.000000
     10          3.102330   0.000000
     11          4.002075   0.000000
     12          4.930809   0.000000
     13          5.080160   0.000000
     14          6.170862   0.000000
     15          7.020915   0.000000
     16          7.778652   0.000000
 
  0.2142857E+00 -0.7142857E-01  0.0000000E+00  0.1020408E-01
      1        -16.903882   1.000000
      2         -9.466919   1.000000
      3         -6.257246   1.000000
      4         -4.704237   1.000000
      5         -3.486618   1.000000
      6         -0.153809   0.000000
      7          1.176768   0.000000
      8          2.462274   0.000000
      9          2.703824   0.000000
     10          3.085544   0.000000
     11          4.007057   0.000000
     12          4.941287   0.000000
     13          5.078619   0.000000
     14          6.214750   0.000000
     15          7.031975   0.000000
     16          7.780502   0.000000
 
  0.2142857E+00  0.7142857E-01  0.0000000E+00  0.1020408E-01
      1        -16.421469   1.000000
      2         -9.553089   1.000000
      3         -7.235085   1.000000
      4         -5.211953   1.000000
      5         -3.390996   1.000000
      6         -0.672599   0.000000
      7          1.521169   0.000000
      8          1.909220   0.000000
      9          3.188749   0.000000
     10          3.646108   0.000000
     11          4.472966   0.000000
     12          5.389127   0.000000
     13          5.611068   0.000000
     14          6.241039   0.000000
     15          7.497174   0.000000
     16          8.226832   0.000000
 
 -0.7142857E-01  0.2857143E+00  0.0000000E+00  0.1020408E-01
      1        -16.422527   1.000000
      2         -9.547892   1.000000
      3         -7.228970   1.000000
      4         -5.226861   1.000000
      5         -3.394178   1.000000
      6         -0.663808   0.000000
      7          1.580511   0.000000
      8          1.860851   0.000000
      9          3.189900   0.000000
     10          3.643281   0.000000
     11          4.447831   0.000000
     12          5.374523   0.000000
     13          5.601502   0.000000
     14          6.224209   0.000000
     15          7.562189   0.000000
     16          8.231499   0.000000
 
 -0.2857143E+00  0.2142857E+00  0.0000000E+00  0.1020408E-01
      1        -16.428016   1.000000
      2         -9.525447   1.000000
      3         -7.201744   1.000000
      4         -5.271568   1.000000
      5         -3.386729   1.000000
      6         -0.700241   0.000000
      7          1.586726   0.000000
      8          1.832835   0.000000
      9          3.189028   0.000000
     10          3.637121   0.000000
     11          4.474711   0.000000
     12          5.394389   0.000000
     13          5.607123   0.000000
     14          6.242616   0.000000
     15          7.573653   0.000000
     16          8.236700   0.000000
 
 -0.2142857E+00  0.2857143E+00  0.0000000E+00  0.1020408E-01
      1        -16.427194   1.000000
      2         -9.529093   1.000000
      3         -7.206293   1.000000
      4         -5.262753   1.000000
      5         -3.386347   1.000000
      6         -0.699443   0.000000
      7          1.563491   0.000000
      8          1.853962   0.000000
      9          3.188719   0.000000
     10          3.638510   0.000000
     11          4.480284   0.000000
     12          5.397641   0.000000
     13          5.609940   0.000000
     14          6.246724   0.000000
     15          7.550924   0.000000
     16          8.234649   0.000000
 
  0.7142857E-01  0.2142857E+00  0.0000000E+00  0.1020408E-01
      1        -16.420231   1.000000
      2         -9.558068   1.000000
      3         -7.240715   1.000000
      4         -5.202961   1.000000
      5         -3.393172   1.000000
      6         -0.662516   0.000000
      7          1.527233   0.000000
      8          1.908831   0.000000
      9          3.189034   0.000000
     10          3.647574   0.000000
     11          4.464390   0.000000
     12          5.382938   0.000000
     13          5.608696   0.000000
     14          6.234892   0.000000
     15          7.500214   0.000000
     16          8.226163   0.000000
 
  0.2857143E+00 -0.7142857E-01  0.0000000E+00  0.1020408E-01
      1        -16.424587   1.000000
      2         -9.539266   1.000000
      3         -7.218809   1.000000
      4         -5.244651   1.000000
      5         -3.392388   1.000000
      6         -0.674686   0.000000
      7          1.596693   0.000000
      8          1.841100   0.000000
      9          3.189925   0.000000
     10          3.640426   0.000000
     11          4.450839   0.000000
     12          5.377448   0.000000
     13          5.601068   0.000000
     14          6.226243   0.000000
     15          7.581890   0.000000
     16          8.234209   0.000000
 
  0.2857143E+00  0.7142857E-01  0.0000000E+00  0.1020408E-01
      1        -15.800139   1.000000
      2        -10.263661   1.000000
      3         -7.388010   1.000000
      4         -5.646894   1.000000
      5         -3.540013   1.000000
      6         -0.981445   0.000000
      7          1.052207   0.000000
      8          1.687631   0.000000
      9          3.884385   0.000000
     10          4.118644   0.000000
     11          4.808807   0.000000
     12          5.994080   0.000000
     13          6.418623   0.000000
     14          6.525826   0.000000
     15          8.517478   0.000000
     16          9.011040   0.000000
 
 -0.7142857E-01  0.3571429E+00  0.0000000E+00  0.1020408E-01
      1        -15.800193   1.000000
      2        -10.262261   1.000000
      3         -7.389552   1.000000
      4         -5.648480   1.000000
      5         -3.548113   1.000000
      6         -0.961985   0.000000
      7          1.039362   0.000000
      8          1.711701   0.000000
      9          3.882242   0.000000
     10          4.116876   0.000000
     11          4.800409   0.000000
     12          5.991140   0.000000
     13          6.385055   0.000000
     14          6.505072   0.000000
     15          8.544318   0.000000
     16          9.061135   0.000000
 
 -0.3571429E+00  0.2857143E+00  0.0000000E+00  0.1020408E-01
      1        -15.812660   1.000000
      2        -10.211223   1.000000
      3         -7.389737   1.000000
      4         -5.689486   1.000000
      5         -3.529934   1.000000
      6         -0.997353   0.000000
      7          0.995162   0.000000
      8          1.716059   0.000000
      9          3.883251   0.000000
     10          4.117046   0.000000
     11          4.820674   0.000000
     12          6.001791   0.000000
     13          6.413444   0.000000
     14          6.521364   0.000000
     15          8.532974   0.000000
     16          9.057194   0.000000
 
 -0.2857143E+00  0.3571429E+00  0.0000000E+00  0.1020408E-01
      1        -15.811564   1.000000
      2        -10.216150   1.000000
      3         -7.389156   1.000000
      4         -5.685561   1.000000
      5         -3.528769   1.000000
      6         -1.000467   0.000000
      7          1.003747   0.000000
      8          1.707024   0.000000
      9          3.883858   0.000000
     10          4.117537   0.000000
     11          4.821660   0.000000
     12          6.001835   0.000000
     13          6.421059   0.000000
     14          6.527788   0.000000
     15          8.525094   0.000000
     16          9.042390   0.000000
 
  0.7142857E-01  0.2857143E+00  0.0000000E+00  0.1020408E-01
      1        -15.797114   1.000000
      2        -10.275743   1.000000
      3         -7.388028   1.000000
      4         -5.637474   1.000000
      5         -3.545234   1.000000
      6         -0.970657   0.000000
      7          1.064168   0.000000
      8          1.685769   0.000000
      9          3.883956   0.000000
     10          4.118479   0.000000
     11          4.803127   0.000000
     12          5.991267   0.000000
     13          6.410155   0.000000
     14          6.518618   0.000000
     15          8.522856   0.000000
     16          9.015135   0.000000
 
  0.3571429E+00 -0.7142857E-01  0.0000000E+00  0.1020408E-01
      1        -15.804315   1.000000
      2        -10.245254   1.000000
      3         -7.390114   1.000000
      4         -5.661822   1.000000
      5         -3.544058   1.000000
      6         -0.969660   0.000000
      7          1.019095   0.000000
      8          1.722322   0.000000
      9          3.882064   0.000000
     10          4.116554   0.000000
     11          4.805100   0.000000
     12          5.993911   0.000000
     13          6.385916   0.000000
     14          6.505843   0.000000
     15          8.546832   0.000000
     16          9.071897   0.000000
 
  0.3571429E+00  0.7142857E-01  0.0000000E+00  0.1020408E-01
      1        -15.076943   1.000000
      2        -11.310523   1.000000
      3         -7.023135   1.000000
      4         -5.904800   1.000000
      5         -4.032830   1.000000
      6         -0.965144   0.000000
      7          0.470069   0.000000
      8          1.713865   0.000000
      9          3.674082   0.000000
     10          4.871955   0.000000
     11          5.502831   0.000000
     12          6.706987   0.000000
     13          7.350394   0.000000
     14          7.481924   0.000000
     15          8.634442   0.000000
     16          8.698914   0.000000
 
 -0.7142857E-01  0.4285714E+00  0.0000000E+00  0.1020408E-01
      1        -15.073579   1.000000
      2        -11.318697   1.000000
      3         -7.024609   1.000000
      4         -5.895829   1.000000
      5         -4.045686   1.000000
      6         -0.937438   0.000000
      7          0.449678   0.000000
      8          1.742371   0.000000
      9          3.658407   0.000000
     10          4.872798   0.000000
     11          5.501387   0.000000
     12          6.708322   0.000000
     13          7.350474   0.000000
     14          7.445292   0.000000
     15          8.618976   0.000000
     16          8.736554   0.000000
 
 -0.4285714E+00  0.3571429E+00  0.0000000E+00  0.1020408E-01
      1        -15.101382   1.000000
      2        -11.244615   1.000000
      3         -7.045095   1.000000
      4         -5.932003   1.000000
      5         -4.012732   1.000000
      6         -0.974485   0.000000
      7          0.399262   0.000000
      8          1.739881   0.000000
      9          3.689248   0.000000
     10          4.872276   0.000000
     11          5.507822   0.000000
     12          6.711338   0.000000
     13          7.349861   0.000000
     14          7.480484   0.000000
     15          8.602402   0.000000
     16          8.720171   0.000000
 
 -0.3571429E+00  0.4285714E+00  0.0000000E+00  0.1020408E-01
      1        -15.100075   1.000000
      2        -11.248370   1.000000
      3         -7.042722   1.000000
      4         -5.932029   1.000000
      5         -4.011279   1.000000
      6         -0.980275   0.000000
      7          0.410531   0.000000
      8          1.730460   0.000000
      9          3.691672   0.000000
     10          4.872027   0.000000
     11          5.507741   0.000000
     12          6.710590   0.000000
     13          7.349840   0.000000
     14          7.489417   0.000000
     15          8.609330   0.000000
     16          8.708993   0.000000
 
  0.7142857E-01  0.3571429E+00  0.0000000E+00  0.1020408E-01
      1        -15.069841   1.000000
      2        -11.329054   1.000000
      3         -7.018383   1.000000
      4         -5.895526   1.000000
      5         -4.042024   1.000000
      6         -0.952986   0.000000
      7          0.481361   0.000000
      8          1.715356   0.000000
      9          3.665187   0.000000
     10          4.872143   0.000000
     11          5.501165   0.000000
     12          6.706417   0.000000
     13          7.350559   0.000000
     14          7.470203   0.000000
     15          8.637068   0.000000
     16          8.706455   0.000000
 
  0.4285714E+00 -0.7142857E-01  0.0000000E+00  0.1020408E-01
      1        -15.081987   1.000000
      2        -11.296414   1.000000
      3         -7.031730   1.000000
      4         -5.905077   1.000000
      5         -4.037948   1.000000
      6         -0.943821   0.000000
      7          0.427211   0.000000
      8          1.750224   0.000000
      9          3.664877   0.000000
     10          4.872860   0.000000
     11          5.503135   0.000000
     12          6.709642   0.000000
     13          7.350333   0.000000
     14          7.448080   0.000000
     15          8.609403   0.000000
     16          8.740207   0.000000
 
  0.4285714E+00  0.7142857E-01  0.0000000E+00  0.1020408E-01
      1        -14.414487   1.000000
      2        -12.182244   1.000000
      3         -6.679369   1.000000
      4         -5.905321   1.000000
      5         -4.596315   1.000000
      6         -0.831082   0.000000
      7          0.158153   0.000000
      8          1.782347   0.000000
      9          3.206836   0.000000
     10          5.945640   0.000000
     11          6.468632   0.000000
     12          7.118517   0.000000
     13          7.418848   0.000000
     14          7.832810   0.000000
     15          8.395932   0.000000
     16          8.457738   0.000000
 
 -0.7142857E-01  0.5000000E+00  0.0000000E+00  0.1020408E-01
      1        -14.400586   1.000000
      2        -12.206509   1.000000
      3         -6.673577   1.000000
      4         -5.891934   1.000000
      5         -4.613444   1.000000
      6         -0.809483   0.000000
      7          0.156035   0.000000
      8          1.796385   0.000000
      9          3.189349   0.000000
     10          5.946505   0.000000
     11          6.470212   0.000000
     12          7.115456   0.000000
     13          7.420335   0.000000
     14          7.830968   0.000000
     15          8.377497   0.000000
     16          8.456993   0.000000
 
  0.5000000E+00  0.4285714E+00  0.0000000E+00  0.1020408E-01
      1        -14.462082   1.000000
      2        -12.096268   1.000000
      3         -6.716842   1.000000
      4         -5.925642   1.000000
      5         -4.559795   1.000000
      6         -0.843198   0.000000
      7          0.092578   0.000000
      8          1.792850   0.000000
      9          3.235586   0.000000
     10          5.945128   0.000000
     11          6.470006   0.000000
     12          7.120892   0.000000
     13          7.411044   0.000000
     14          7.836891   0.000000
     15          8.383376   0.000000
     16          8.459334   0.000000
 
 -0.4285714E+00  0.5000000E+00  0.0000000E+00  0.1020408E-01
      1        -14.461196   1.000000
      2        -12.097955   1.000000
      3         -6.714958   1.000000
      4         -5.927191   1.000000
      5         -4.558863   1.000000
      6         -0.847102   0.000000
      7          0.098836   0.000000
      8          1.788337   0.000000
      9          3.237208   0.000000
     10          5.944939   0.000000
     11          6.469484   0.000000
     12          7.121410   0.000000
     13          7.411433   0.000000
     14          7.836960   0.000000
     15          8.388887   0.000000
     16          8.459496   0.000000
 
  0.7142857E-01  0.4285714E+00  0.0000000E+00  0.1020408E-01
      1        -14.397905   1.000000
      2        -12.211358   1.000000
      3         -6.668389   1.000000
      4         -5.896255   1.000000
      5         -4.610924   1.000000
      6         -0.819790   0.000000
      7          0.173299   0.000000
      8          1.783283   0.000000
      9          3.194039   0.000000
     10          5.946024   0.000000
     11          6.468832   0.000000
     12          7.116936   0.000000
     13          7.421316   0.000000
     14          7.831161   0.000000
     15          8.393022   0.000000
     16          8.457044   0.000000
 
  0.5000000E+00 -0.7142857E-01  0.0000000E+00  0.1020408E-01
      1        -14.418047   1.000000
      2        -12.175716   1.000000
      3         -6.686438   1.000000
      4         -5.899453   1.000000
      5         -4.599768   1.000000
      6         -0.816906   0.000000
      7          0.134689   0.000000
      8          1.799937   0.000000
      9          3.200525   0.000000
     10          5.946309   0.000000
     11          6.470533   0.000000
     12          7.116521   0.000000
     13          7.417477   0.000000
     14          7.832548   0.000000
     15          8.374883   0.000000
     16          8.457548   0.000000
 
  0.1428571E+00  0.1428571E+00  0.0000000E+00  0.1020408E-01
      1        -16.499377   1.000000
      2         -9.486356   1.000000
      3         -7.014988   1.000000
      4         -5.499659   1.000000
      5         -3.384343   1.000000
      6          0.159378   0.000000
      7          0.900315   0.000000
      8          2.653770   0.000000
      9          3.099698   0.000000
     10          3.139671   0.000000
     11          3.928419   0.000000
     12          5.190748   0.000000
     13          5.504649   0.000000
     14          6.491023   0.000000
     15          7.712967   0.000000
     16          7.964796   0.000000
 
 -0.1428571E+00  0.2857143E+00  0.0000000E+00  0.1020408E-01
      1        -16.503520   1.000000
      2         -9.469603   1.000000
      3         -6.976079   1.000000
      4         -5.556803   1.000000
      5         -3.382308   1.000000
      6          0.109269   0.000000
      7          0.974956   0.000000
      8          2.592748   0.000000
      9          3.101335   0.000000
     10          3.137233   0.000000
     11          3.932891   0.000000
     12          5.191622   0.000000
     13          5.503528   0.000000
     14          6.490836   0.000000
     15          7.777707   0.000000
     16          7.965118   0.000000
 
 -0.2857143E+00  0.1428571E+00  0.0000000E+00  0.1020408E-01
      1        -16.505008   1.000000
      2         -9.463604   1.000000
      3         -6.961290   1.000000
      4         -5.577950   1.000000
      5         -3.381539   1.000000
      6          0.090976   0.000000
      7          1.002363   0.000000
      8          2.570648   0.000000
      9          3.102678   0.000000
     10          3.135670   0.000000
     11          3.934400   0.000000
     12          5.191931   0.000000
     13          5.503108   0.000000
     14          6.490539   0.000000
     15          7.801689   0.000000
     16          7.964956   0.000000
 
  0.2142857E+00  0.1428571E+00  0.0000000E+00  0.1020408E-01
      1        -15.948496   1.000000
      2         -9.939093   1.000000
      3         -7.284708   1.000000
      4         -6.219807   1.000000
      5         -3.411657   1.000000
      6         -0.097149   0.000000
      7          0.976215   0.000000
      8          2.064381   0.000000
      9          3.588927   0.000000
     10          3.815376   0.000000
     11          4.473861   0.000000
     12          5.701156   0.000000
     13          5.820084   0.000000
     14          6.394557   0.000000
     15          8.074562   0.000000
     16          9.212670   0.000000
 
 -0.1428571E+00  0.3571429E+00  0.0000000E+00  0.1020408E-01
      1        -15.953346   1.000000
      2         -9.914533   1.000000
      3         -7.277768   1.000000
      4         -6.250819   1.000000
      5         -3.411388   1.000000
      6         -0.097457   0.000000
      7          0.976772   0.000000
      8          2.086310   0.000000
      9          3.562696   0.000000
     10          3.807696   0.000000
     11          4.465208   0.000000
     12          5.694143   0.000000
     13          5.815216   0.000000
     14          6.392724   0.000000
     15          8.079581   0.000000
     16          9.258359   0.000000
 
 -0.3571429E+00  0.2142857E+00  0.0000000E+00  0.1020408E-01
      1        -15.959094   1.000000
      2         -9.887134   1.000000
      3         -7.266794   1.000000
      4         -6.285204   1.000000
      5         -3.403927   1.000000
      6         -0.125237   0.000000
      7          0.999199   0.000000
      8          2.032566   0.000000
      9          3.582398   0.000000
     10          3.816265   0.000000
     11          4.475312   0.000000
     12          5.695281   0.000000
     13          5.827420   0.000000
     14          6.398736   0.000000
     15          8.067422   0.000000
     16          9.265113   0.000000
 
 -0.2142857E+00  0.3571429E+00  0.0000000E+00  0.1020408E-01
      1        -15.957011   1.000000
      2         -9.897671   1.000000
      3         -7.270256   1.000000
      4         -6.271851   1.000000
      5         -3.404591   1.000000
      6         -0.122344   0.000000
      7          0.997954   0.000000
      8          2.028843   0.000000
      9          3.588781   0.000000
     10          3.818132   0.000000
     11          4.477423   0.000000
     12          5.697596   0.000000
     13          5.827997   0.000000
     14          6.398825   0.000000
     15          8.066932   0.000000
     16          9.250314   0.000000
 
  0.1428571E+00  0.2142857E+00  0.0000000E+00  0.1020408E-01
      1        -15.947522   1.000000
      2         -9.943500   1.000000
      3         -7.286445   1.000000
      4         -6.214601   1.000000
      5         -3.413489   1.000000
      6         -0.090212   0.000000
      7          0.971235   0.000000
      8          2.078431   0.000000
      9          3.582386   0.000000
     10          3.812533   0.000000
     11          4.470569   0.000000
     12          5.700138   0.000000
     13          5.816695   0.000000
     14          6.392947   0.000000
     15          8.078001   0.000000
     16          9.214669   0.000000
 
  0.3571429E+00 -0.1428571E+00  0.0000000E+00  0.1020408E-01
      1        -15.956404   1.000000
      2         -9.899591   1.000000
      3         -7.272595   1.000000
      4         -6.269350   1.000000
      5         -3.408893   1.000000
      6         -0.107286   0.000000
      7          0.983039   0.000000
      8          2.075947   0.000000
      9          3.562861   0.000000
     10          3.808663   0.000000
     11          4.466386   0.000000
     12          5.692845   0.000000
     13          5.818028   0.000000
     14          6.394245   0.000000
     15          8.076630   0.000000
     16          9.271144   0.000000
 
  0.2857143E+00  0.1428571E+00  0.0000000E+00  0.1020408E-01
      1        -15.270160   1.000000
      2        -10.840303   1.000000
      3         -7.155884   1.000000
      4         -6.571811   1.000000
      5         -3.727540   1.000000
      6         -0.289345   0.000000
      7          0.865415   0.000000
      8          1.584609   0.000000
      9          4.042499   0.000000
     10          4.639654   0.000000
     11          5.247535   0.000000
     12          5.859962   0.000000
     13          6.489213   0.000000
     14          7.102589   0.000000
     15          8.048870   0.000000
     16          9.417303   0.000000
 
 -0.1428571E+00  0.4285714E+00  0.0000000E+00  0.1020408E-01
      1        -15.274454   1.000000
      2        -10.824283   1.000000
      3         -7.171085   1.000000
      4         -6.570250   1.000000
      5         -3.731083   1.000000
      6         -0.256451   0.000000
      7          0.778501   0.000000
      8          1.670602   0.000000
      9          4.024440   0.000000
     10          4.639932   0.000000
     11          5.243835   0.000000
     12          5.825295   0.000000
     13          6.484653   0.000000
     14          7.101992   0.000000
     15          8.060060   0.000000
     16          9.401953   0.000000
 
 -0.4285714E+00  0.2857143E+00  0.0000000E+00  0.1020408E-01
      1        -15.289552   1.000000
      2        -10.772653   1.000000
      3         -7.188004   1.000000
      4         -6.595080   1.000000
      5         -3.711202   1.000000
      6         -0.297045   0.000000
      7          0.800732   0.000000
      8          1.614004   0.000000
      9          4.046980   0.000000
     10          4.641673   0.000000
     11          5.252340   0.000000
     12          5.861164   0.000000
     13          6.486361   0.000000
     14          7.103066   0.000000
     15          8.038905   0.000000
     16          9.386495   0.000000
 
 -0.2857143E+00  0.4285714E+00  0.0000000E+00  0.1020408E-01
      1        -15.286858   1.000000
      2        -10.782500   1.000000
      3         -7.181089   1.000000
      4         -6.593898   1.000000
      5         -3.711637   1.000000
      6         -0.304213   0.000000
      7          0.828766   0.000000
      8          1.589217   0.000000
      9          4.050772   0.000000
     10          4.641390   0.000000
     11          5.252871   0.000000
     12          5.869330   0.000000
     13          6.487756   0.000000
     14          7.103145   0.000000
     15          8.037235   0.000000
     16          9.392787   0.000000
 
  0.1428571E+00  0.2857143E+00  0.0000000E+00  0.1020408E-01
      1        -15.266842   1.000000
      2        -10.851227   1.000000
      3         -7.153402   1.000000
      4         -6.565629   1.000000
      5         -3.732728   1.000000
      6         -0.276495   0.000000
      7          0.851681   0.000000
      8          1.606306   0.000000
      9          4.035590   0.000000
     10          4.639263   0.000000
     11          5.245178   0.000000
     12          5.848248   0.000000
     13          6.488348   0.000000
     14          7.102276   0.000000
     15          8.055034   0.000000
     16          9.419874   0.000000
 
  0.4285714E+00 -0.1428571E+00  0.0000000E+00  0.1020408E-01
      1        -15.280466   1.000000
      2        -10.803519   1.000000
      3         -7.180464   1.000000
      4         -6.577623   1.000000
      5         -3.725461   1.000000
      6         -0.262131   0.000000
      7          0.764293   0.000000
      8          1.673596   0.000000
      9          4.027562   0.000000
     10          4.640606   0.000000
     11          5.245659   0.000000
     12          5.828841   0.000000
     13          6.484121   0.000000
     14          7.102225   0.000000
     15          8.055563   0.000000
     16          9.393098   0.000000
 
  0.3571429E+00  0.1428571E+00  0.0000000E+00  0.1020408E-01
      1        -14.535022   1.000000
      2        -11.811201   1.000000
      3         -7.236075   1.000000
      4         -6.253956   1.000000
      5         -4.292069   1.000000
      6         -0.275963   0.000000
      7          0.613865   0.000000
      8          1.522170   0.000000
      9          3.641488   0.000000
     10          5.613654   0.000000
     11          6.156196   0.000000
     12          6.800537   0.000000
     13          7.203926   0.000000
     14          8.016734   0.000000
     15          8.241448   0.000000
     16          8.430912   0.000000
 
 -0.1428571E+00  0.5000000E+00  0.0000000E+00  0.1020408E-01
      1        -14.533810   1.000000
      2        -11.813033   1.000000
      3         -7.241476   1.000000
      4         -6.245158   1.000000
      5         -4.301123   1.000000
      6         -0.227981   0.000000
      7          0.530471   0.000000
      8          1.591029   0.000000
      9          3.624988   0.000000
     10          5.614014   0.000000
     11          6.155618   0.000000
     12          6.771588   0.000000
     13          7.209003   0.000000
     14          8.012774   0.000000
     15          8.235288   0.000000
     16          8.448132   0.000000
 
  0.5000000E+00  0.3571429E+00  0.0000000E+00  0.1020408E-01
      1        -14.571906   1.000000
      2        -11.731244   1.000000
      3         -7.283505   1.000000
      4         -6.263265   1.000000
      5         -4.263737   1.000000
      6         -0.283515   0.000000
      7          0.538804   0.000000
      8          1.553342   0.000000
      9          3.658187   0.000000
     10          5.613215   0.000000
     11          6.157596   0.000000
     12          6.799112   0.000000
     13          7.202128   0.000000
     14          8.001851   0.000000
     15          8.233298   0.000000
     16          8.444312   0.000000
 
 -0.3571429E+00  0.5000000E+00  0.0000000E+00  0.1020408E-01
      1        -14.569048   1.000000
      2        -11.737733   1.000000
      3         -7.278021   1.000000
      4         -6.264713   1.000000
      5         -4.263907   1.000000
      6         -0.294068   0.000000
      7          0.565351   0.000000
      8          1.533813   0.000000
      9          3.660657   0.000000
     10          5.613141   0.000000
     11          6.157614   0.000000
     12          6.805965   0.000000
     13          7.201066   0.000000
     14          8.004348   0.000000
     15          8.235394   0.000000
     16          8.438856   0.000000
 
  0.1428571E+00  0.3571429E+00  0.0000000E+00  0.1020408E-01
      1        -14.525458   1.000000
      2        -11.831185   1.000000
      3         -7.226558   1.000000
      4         -6.248872   1.000000
      5         -4.301967   1.000000
      6         -0.258207   0.000000
      7          0.604698   0.000000
      8          1.536955   0.000000
      9          3.632104   0.000000
     10          5.613863   0.000000
     11          6.155680   0.000000
     12          6.791336   0.000000
     13          7.206018   0.000000
     14          8.018855   0.000000
     15          8.241471   0.000000
     16          8.433558   0.000000
 
  0.5000000E+00 -0.1428571E+00  0.0000000E+00  0.1020408E-01
      1        -14.546227   1.000000
      2        -11.786569   1.000000
      3         -7.256474   1.000000
      4         -6.248792   1.000000
      5         -4.291057   1.000000
      6         -0.235210   0.000000
      7          0.513137   0.000000
      8          1.595750   0.000000
      9          3.631903   0.000000
     10          5.613879   0.000000
     11          6.156113   0.000000
     12          6.773939   0.000000
     13          7.207973   0.000000
     14          8.008151   0.000000
     15          8.233158   0.000000
     16          8.450962   0.000000
 
  0.4285714E+00  0.1428571E+00  0.0000000E+00  0.1020408E-01
      1        -14.099285   1.000000
      2        -12.334245   1.000000
      3         -7.315032   1.000000
      4         -5.914976   1.000000
      5         -4.676819   1.000000
      6         -0.211049   0.000000
      7          0.445619   0.000000
      8          1.615192   0.000000
      9          3.352893   0.000000
     10          6.586764   0.000000
     11          6.862053   0.000000
     12          7.001760   0.000000
     13          7.129846   0.000000
     14          7.765856   0.000000
     15          8.044847   0.000000
     16          9.176495   0.000000
 
 -0.1428571E+00 -0.4285714E+00  0.0000000E+00  0.1020408E-01
      1        -14.078839   1.000000
      2        -12.367131   1.000000
      3         -7.302336   1.000000
      4         -5.905950   1.000000
      5         -4.692240   1.000000
      6         -0.196007   0.000000
      7          0.449932   0.000000
      8          1.618907   0.000000
      9          3.343199   0.000000
     10          6.588505   0.000000
     11          6.858720   0.000000
     12          7.002717   0.000000
     13          7.132881   0.000000
     14          7.766144   0.000000
     15          8.045482   0.000000
     16          9.172397   0.000000
 
  0.4285714E+00  0.4285714E+00  0.0000000E+00  0.1020408E-01
      1        -14.152820   1.000000
      2        -12.245558   1.000000
      3         -7.350850   1.000000
      4         -5.939760   1.000000
      5         -4.634690   1.000000
      6         -0.247656   0.000000
      7          0.431942   0.000000
      8          1.601501   0.000000
      9          3.379899   0.000000
     10          6.581636   0.000000
     11          6.870848   0.000000
     12          6.999730   0.000000
     13          7.121125   0.000000
     14          7.765670   0.000000
     15          8.042245   0.000000
     16          9.186359   0.000000
 
  0.2142857E+00  0.2142857E+00  0.0000000E+00  0.1020408E-01
      1        -15.335416   1.000000
      2        -10.630923   1.000000
      3         -7.128741   1.000000
      4         -6.951999   1.000000
      5         -3.612125   1.000000
      6          0.216374   0.000000
      7          0.374956   0.000000
      8          2.640658   0.000000
      9          3.533116   0.000000
     10          4.506833   0.000000
     11          5.097279   0.000000
     12          5.421367   0.000000
     13          6.309078   0.000000
     14          7.034793   0.000000
     15          7.634407   0.000000
     16          9.880813   0.000000
 
 -0.2142857E+00  0.4285714E+00  0.0000000E+00  0.1020408E-01
      1        -15.347185   1.000000
      2        -10.584059   1.000000
      3         -7.173949   1.000000
      4         -6.946871   1.000000
      5         -3.602776   1.000000
      6          0.213173   0.000000
      7          0.355717   0.000000
      8          2.664312   0.000000
      9          3.501743   0.000000
     10          4.507913   0.000000
     11          5.094498   0.000000
     12          5.433943   0.000000
     13          6.301555   0.000000
     14          7.035170   0.000000
     15          7.626678   0.000000
     16          9.881255   0.000000
 
 -0.4285714E+00  0.2142857E+00  0.0000000E+00  0.1020408E-01
      1        -15.351389   1.000000
      2        -10.567019   1.000000
      3         -7.190439   1.000000
      4         -6.944846   1.000000
      5         -3.599537   1.000000
      6          0.213655   0.000000
      7          0.346281   0.000000
      8          2.674558   0.000000
      9          3.489905   0.000000
     10          4.508301   0.000000
     11          5.093425   0.000000
     12          5.438509   0.000000
     13          6.298738   0.000000
     14          7.035362   0.000000
     15          7.623768   0.000000
     16          9.881360   0.000000
 
  0.2857143E+00  0.2142857E+00  0.0000000E+00  0.1020408E-01
      1        -14.616158   1.000000
      2        -11.483473   1.000000
      3         -7.749611   1.000000
      4         -6.405107   1.000000
      5         -4.040780   1.000000
      6         -0.366193   0.000000
      7          0.839036   0.000000
      8          2.419637   0.000000
      9          4.066396   0.000000
     10          5.411400   0.000000
     11          5.485035   0.000000
     12          5.867592   0.000000
     13          6.700698   0.000000
     14          7.814935   0.000000
     15          7.941090   0.000000
     16          9.260708   0.000000
 
 -0.2142857E+00  0.5000000E+00  0.0000000E+00  0.1020408E-01
      1        -14.628230   1.000000
      2        -11.451546   1.000000
      3         -7.774447   1.000000
      4         -6.403889   1.000000
      5         -4.035110   1.000000
      6         -0.360322   0.000000
      7          0.801317   0.000000
      8          2.479345   0.000000
      9          4.038724   0.000000
     10          5.396000   0.000000
     11          5.479747   0.000000
     12          5.862558   0.000000
     13          6.696751   0.000000
     14          7.816170   0.000000
     15          7.941543   0.000000
     16          9.263530   0.000000
 
  0.5000000E+00  0.2857143E+00  0.0000000E+00  0.1020408E-01
      1        -14.644803   1.000000
      2        -11.408316   1.000000
      3         -7.801911   1.000000
      4         -6.409703   1.000000
      5         -4.018155   1.000000
      6         -0.385623   0.000000
      7          0.812025   0.000000
      8          2.446765   0.000000
      9          4.045660   0.000000
     10          5.422408   0.000000
     11          5.489400   0.000000
     12          5.859091   0.000000
     13          6.686145   0.000000
     14          7.813067   0.000000
     15          7.940045   0.000000
     16          9.259457   0.000000
 
 -0.2857143E+00  0.5000000E+00  0.0000000E+00  0.1020408E-01
      1        -14.639497   1.000000
      2        -11.422626   1.000000
      3         -7.791187   1.000000
      4         -6.409757   1.000000
      5         -4.021360   1.000000
      6         -0.385241   0.000000
      7          0.823839   0.000000
      8          2.429619   0.000000
      9          4.054001   0.000000
     10          5.424344   0.000000
     11          5.490903   0.000000
     12          5.861090   0.000000
     13          6.688414   0.000000
     14          7.812988   0.000000
     15          7.939945   0.000000
     16          9.258856   0.000000
 
  0.2142857E+00  0.2857143E+00  0.0000000E+00  0.1020408E-01
      1        -14.613112   1.000000
      2        -11.491076   1.000000
      3         -7.745296   1.000000
      4         -6.403574   1.000000
      5         -4.044428   1.000000
      6         -0.359388   0.000000
      7          0.832945   0.000000
      8          2.432382   0.000000
      9          4.062895   0.000000
     10          5.403555   0.000000
     11          5.482243   0.000000
     12          5.867917   0.000000
     13          6.702876   0.000000
     14          7.815766   0.000000
     15          7.941524   0.000000
     16          9.262055   0.000000
 
  0.5000000E+00 -0.2142857E+00  0.0000000E+00  0.1020408E-01
      1        -14.636580   1.000000
      2        -11.429640   1.000000
      3         -7.789483   1.000000
      4         -6.405367   1.000000
      5         -4.028258   1.000000
      6         -0.367514   0.000000
      7          0.795613   0.000000
      8          2.483743   0.000000
      9          4.033878   0.000000
     10          5.401813   0.000000
     11          5.481126   0.000000
     12          5.860235   0.000000
     13          6.692303   0.000000
     14          7.815417   0.000000
     15          7.941210   0.000000
     16          9.262784   0.000000
 
  0.3571429E+00  0.2142857E+00  0.0000000E+00  0.1020408E-01
      1        -13.925338   1.000000
      2        -12.265522   1.000000
      3         -8.059701   1.000000
      4         -5.826927   1.000000
      5         -4.570677   1.000000
      6         -0.671781   0.000000
      7          1.415246   0.000000
      8          1.941726   0.000000
      9          3.917399   0.000000
     10          5.932123   0.000000
     11          6.569841   0.000000
     12          6.817010   0.000000
     13          7.509293   0.000000
     14          7.846668   0.000000
     15          8.376246   0.000000
     16          8.803842   0.000000
 
 -0.2142857E+00 -0.4285714E+00  0.0000000E+00  0.1020408E-01
      1        -13.924547   1.000000
      2        -12.266465   1.000000
      3         -8.060957   1.000000
      4         -5.823020   1.000000
      5         -4.575662   1.000000
      6         -0.664359   0.000000
      7          1.370202   0.000000
      8          1.998935   0.000000
      9          3.911460   0.000000
     10          5.919607   0.000000
     11          6.570484   0.000000
     12          6.810257   0.000000
     13          7.504405   0.000000
     14          7.846610   0.000000
     15          8.370712   0.000000
     16          8.802877   0.000000
 
  0.4285714E+00  0.3571429E+00  0.0000000E+00  0.1020408E-01
      1        -13.977279   1.000000
      2        -12.177607   1.000000
      3         -8.097660   1.000000
      4         -5.846525   1.000000
      5         -4.535215   1.000000
      6         -0.694553   0.000000
      7          1.377185   0.000000
      8          1.973661   0.000000
      9          3.912893   0.000000
     10          5.924063   0.000000
     11          6.569865   0.000000
     12          6.812183   0.000000
     13          7.498327   0.000000
     14          7.847000   0.000000
     15          8.396168   0.000000
     16          8.810929   0.000000
 
 -0.3571429E+00 -0.4285714E+00  0.0000000E+00  0.1020408E-01
      1        -13.973121   1.000000
      2        -12.184884   1.000000
      3         -8.094026   1.000000
      4         -5.845876   1.000000
      5         -4.536994   1.000000
      6         -0.694262   0.000000
      7          1.391502   0.000000
      8          1.956834   0.000000
      9          3.914807   0.000000
     10          5.927656   0.000000
     11          6.569588   0.000000
     12          6.814097   0.000000
     13          7.500572   0.000000
     14          7.846843   0.000000
     15          8.395963   0.000000
     16          8.810562   0.000000
 
  0.2142857E+00  0.3571429E+00  0.0000000E+00  0.1020408E-01
      1        -13.911797   1.000000
      2        -12.287655   1.000000
      3         -8.051102   1.000000
      4         -5.820797   1.000000
      5         -4.581017   1.000000
      6         -0.663589   0.000000
      7          1.409223   0.000000
      8          1.952784   0.000000
      9          3.916881   0.000000
     10          5.929878   0.000000
     11          6.570084   0.000000
     12          6.815776   0.000000
     13          7.510048   0.000000
     14          7.846844   0.000000
     15          8.369348   0.000000
     16          8.801679   0.000000
 
 -0.4285714E+00 -0.2142857E+00  0.0000000E+00  0.1020408E-01
      1        -13.942205   1.000000
      2        -12.237097   1.000000
      3         -8.073187   1.000000
      4         -5.829794   1.000000
      5         -4.563549   1.000000
      6         -0.672844   0.000000
      7          1.361900   0.000000
      8          2.004716   0.000000
      9          3.910059   0.000000
     10          5.918266   0.000000
     11          6.570518   0.000000
     12          6.809577   0.000000
     13          7.501386   0.000000
     14          7.846606   0.000000
     15          8.377800   0.000000
     16          8.805419   0.000000
 
  0.2857143E+00  0.2857143E+00  0.0000000E+00  0.1020408E-01
      1        -13.878670   1.000000
      2        -12.187614   1.000000
      3         -8.369004   1.000000
      4         -5.808711   1.000000
      5         -4.480587   1.000000
      6         -0.885786   0.000000
      7          1.422260   0.000000
      8          2.608563   0.000000
      9          4.680859   0.000000
     10          5.416355   0.000000
     11          5.896889   0.000000
     12          6.471926   0.000000
     13          7.252939   0.000000
     14          8.412153   0.000000
     15          8.783119   0.000000
     16          8.885012   0.000000
 
 -0.2857143E+00 -0.4285714E+00  0.0000000E+00  0.1020408E-01
      1        -13.909258   1.000000
      2        -12.134184   1.000000
      3         -8.393567   1.000000
      4         -5.818242   1.000000
      5         -4.461894   1.000000
      6         -0.896912   0.000000
      7          1.399795   0.000000
      8          2.649286   0.000000
      9          4.634941   0.000000
     10          5.444369   0.000000
     11          5.872409   0.000000
     12          6.471929   0.000000
     13          7.252438   0.000000
     14          8.425238   0.000000
     15          8.793949   0.000000
     16          8.879669   0.000000
 
  0.4285714E+00  0.2857143E+00  0.0000000E+00  0.1020408E-01
      1        -13.919878   1.000000
      2        -12.115255   1.000000
      3         -8.402494   1.000000
      4         -5.821460   1.000000
      5         -4.455359   1.000000
      6         -0.901030   0.000000
      7          1.391835   0.000000
      8          2.664040   0.000000
      9          4.618657   0.000000
     10          5.454456   0.000000
     11          5.863524   0.000000
     12          6.472028   0.000000
     13          7.252245   0.000000
     14          8.429550   0.000000
     15          8.798214   0.000000
     16          8.877986   0.000000
 
  0.3571429E+00  0.2857143E+00  0.0000000E+00  0.1020408E-01
      1        -13.351644   1.000000
      2        -12.687702   1.000000
      3         -8.601215   1.000000
      4         -5.361676   1.000000
      5         -4.856381   1.000000
      6         -1.101734   0.000000
      7          1.927689   0.000000
      8          2.264637   0.000000
      9          4.801140   0.000000
     10          5.571125   0.000000
     11          6.777097   0.000000
     12          7.174961   0.000000
     13          7.555059   0.000000
     14          7.753538   0.000000
     15          8.375656   0.000000
     16          8.479893   0.000000
 
 -0.2857143E+00 -0.3571429E+00  0.0000000E+00  0.1020408E-01
      1        -13.330593   1.000000
      2        -12.713636   1.000000
      3         -8.596190   1.000000
      4         -5.352960   1.000000
      5         -4.867320   1.000000
      6         -1.098532   0.000000
      7          1.940616   0.000000
      8          2.249241   0.000000
      9          4.812710   0.000000
     10          5.568027   0.000000
     11          6.787089   0.000000
     12          7.154872   0.000000
     13          7.558877   0.000000
     14          7.750739   0.000000
     15          8.376435   0.000000
     16          8.479208   0.000000
 
  0.3571429E+00  0.3571429E+00  0.0000000E+00  0.1020408E-01
      1        -13.403089   1.000000
      2        -12.622558   1.000000
      3         -8.615321   1.000000
      4         -5.384546   1.000000
      5         -4.827347   1.000000
      6         -1.110378   0.000000
      7          1.897472   0.000000
      8          2.301437   0.000000
      9          4.770538   0.000000
     10          5.579529   0.000000
     11          6.747939   0.000000
     12          7.230377   0.000000
     13          7.545174   0.000000
     14          7.761074   0.000000
     15          8.373117   0.000000
     16          8.482200   0.000000
