    2    2    1    1
  0.9013366E+02  0.3606893E-09  0.3606893E-09  0.1600000E-08  0.5000000E-15
  1.000000000000000E-004
  CAR 
 unknown system                          
     10     85     16
 
  0.0000000E+00  0.0000000E+00  0.0000000E+00  0.5917160E-02
      1        -16.475110   1.000000
      2        -10.187014   1.000000
      3         -3.563532   1.000000
      4         -3.058693   1.000000
      5         -2.967823   1.000000
      6         -1.092221   0.000000
      7          0.425176   0.000000
      8          0.529387   0.000000
      9          1.903374   0.000000
     10          1.996481   0.000000
     11          3.376040   0.000000
     12          4.304014   0.000000
     13          5.864047   0.000000
     14          6.884879   0.000000
     15          7.038506   0.000000
     16          7.100190   0.000000
 
  0.7692308E-01  0.1387779E-16  0.0000000E+00  0.1183432E-01
      1        -16.396423   1.000000
      2        -10.177154   1.000000
      3         -3.835654   1.000000
      4         -3.524589   1.000000
      5         -3.155403   1.000000
      6         -0.513066   0.000000
      7          0.394529   0.000000
      8          0.620742   0.000000
      9          2.016866   0.000000
     10          2.092975   0.000000
     11          3.462406   0.000000
     12          4.397976   0.000000
     13          6.027137   0.000000
     14          6.228308   0.000000
     15          7.012774   0.000000
     16          7.436510   0.000000
 
  0.0000000E+00  0.7692308E-01  0.0000000E+00  0.1183432E-01
      1        -16.396723   1.000000
      2        -10.176530   1.000000
      3         -3.806743   1.000000
      4         -3.526005   1.000000
      5         -3.187031   1.000000
      6         -0.508779   0.000000
      7          0.350046   0.000000
      8          0.664378   0.000000
      9          2.015828   0.000000
     10          2.092402   0.000000
     11          3.462006   0.000000
     12          4.397532   0.000000
     13          6.038853   0.000000
     14          6.240384   0.000000
     15          6.993776   0.000000
     16          7.426780   0.000000
 
 -0.7692308E-01  0.7692308E-01  0.0000000E+00  0.1183432E-01
      1        -16.397028   1.000000
      2        -10.175894   1.000000
      3         -3.774879   1.000000
      4         -3.524676   1.000000
      5         -3.224718   1.000000
      6         -0.503375   0.000000
      7          0.313968   0.000000
      8          0.698842   0.000000
      9          2.014787   0.000000
     10          2.091852   0.000000
     11          3.461603   0.000000
     12          4.397087   0.000000
     13          6.049326   0.000000
     14          6.255634   0.000000
     15          6.972365   0.000000
     16          7.415914   0.000000
 
  0.1538462E+00  0.1387779E-16  0.0000000E+00  0.1183432E-01
      1        -16.162198   1.000000
      2        -10.182087   1.000000
      3         -5.048884   1.000000
      4         -3.572380   1.000000
      5         -3.438123   1.000000
      6         -0.658007   0.000000
      7          0.941343   0.000000
      8          1.007349   0.000000
      9          2.290169   0.000000
     10          2.407662   0.000000
     11          3.677248   0.000000
     12          4.645724   0.000000
     13          5.291764   0.000000
     14          6.480862   0.000000
     15          7.029824   0.000000
     16          7.226874   0.000000
 
  0.0000000E+00  0.1538462E+00  0.0000000E+00  0.1183432E-01
      1        -16.163489   1.000000
      2        -10.178998   1.000000
      3         -5.026240   1.000000
      4         -3.599418   1.000000
      5         -3.435876   1.000000
      6         -0.675764   0.000000
      7          0.924310   0.000000
      8          1.036620   0.000000
      9          2.287678   0.000000
     10          2.404166   0.000000
     11          3.677686   0.000000
     12          4.643381   0.000000
     13          5.318795   0.000000
     14          6.481253   0.000000
     15          7.019519   0.000000
     16          7.231790   0.000000
 
 -0.1538462E+00  0.1538462E+00  0.0000000E+00  0.1183432E-01
      1        -16.164800   1.000000
      2        -10.175857   1.000000
      3         -5.002152   1.000000
      4         -3.625744   1.000000
      5         -3.436439   1.000000
      6         -0.691861   0.000000
      7          0.908310   0.000000
      8          1.064017   0.000000
      9          2.284820   0.000000
     10          2.400951   0.000000
     11          3.678008   0.000000
     12          4.641110   0.000000
     13          5.345700   0.000000
     14          6.481918   0.000000
     15          7.009573   0.000000
     16          7.235606   0.000000
 
  0.2307692E+00 -0.1387779E-16  0.0000000E+00  0.1183432E-01
      1        -15.779079   1.000000
      2        -10.317363   1.000000
      3         -6.043295   1.000000
      4         -4.030814   1.000000
      5         -3.412043   1.000000
      6         -1.180983   0.000000
      7          1.316048   0.000000
      8          1.344232   0.000000
      9          2.598562   0.000000
     10          2.863647   0.000000
     11          4.026859   0.000000
     12          4.890888   0.000000
     13          5.439643   0.000000
     14          6.142345   0.000000
     15          7.465964   0.000000
     16          7.526819   0.000000
 
  0.0000000E+00  0.2307692E+00  0.0000000E+00  0.1183432E-01
      1        -15.782393   1.000000
      2        -10.308198   1.000000
      3         -6.028446   1.000000
      4         -4.050941   1.000000
      5         -3.408485   1.000000
      6         -1.198948   0.000000
      7          1.294736   0.000000
      8          1.362674   0.000000
      9          2.596956   0.000000
     10          2.858491   0.000000
     11          4.027561   0.000000
     12          4.895610   0.000000
     13          5.460503   0.000000
     14          6.149643   0.000000
     15          7.463710   0.000000
     16          7.532609   0.000000
 
 -0.2307692E+00  0.2307692E+00  0.0000000E+00  0.1183432E-01
      1        -15.785754   1.000000
      2        -10.298876   1.000000
      3         -6.012754   1.000000
      4         -4.072151   1.000000
      5         -3.405483   1.000000
      6         -1.215755   0.000000
      7          1.286868   0.000000
      8          1.367389   0.000000
      9          2.594699   0.000000
     10          2.853535   0.000000
     11          4.028043   0.000000
     12          4.899820   0.000000
     13          5.481700   0.000000
     14          6.157244   0.000000
     15          7.462515   0.000000
     16          7.537521   0.000000
 
  0.3076923E+00  0.2775558E-16  0.0000000E+00  0.1183432E-01
      1        -15.263092   1.000000
      2        -10.739132   1.000000
      3         -6.561931   1.000000
      4         -4.425846   1.000000
      5         -3.638711   1.000000
      6         -1.401430   0.000000
      7          1.013762   0.000000
      8          1.476430   0.000000
      9          3.129875   0.000000
     10          3.348151   0.000000
     11          4.281504   0.000000
     12          5.356987   0.000000
     13          5.651633   0.000000
     14          6.884400   0.000000
     15          7.405136   0.000000
     16          8.400131   0.000000
 
  0.0000000E+00  0.3076923E+00  0.0000000E+00  0.1183432E-01
      1        -15.270327   1.000000
      2        -10.719410   1.000000
      3         -6.558200   1.000000
      4         -4.442108   1.000000
      5         -3.630550   1.000000
      6         -1.417830   0.000000
      7          0.985146   0.000000
      8          1.490246   0.000000
      9          3.130093   0.000000
     10          3.343353   0.000000
     11          4.286208   0.000000
     12          5.366546   0.000000
     13          5.657705   0.000000
     14          6.898925   0.000000
     15          7.404629   0.000000
     16          8.401530   0.000000
 
 -0.3076923E+00  0.3076923E+00  0.0000000E+00  0.1183432E-01
      1        -15.277638   1.000000
      2        -10.699321   1.000000
      3         -6.554088   1.000000
      4         -4.459453   1.000000
      5         -3.622592   1.000000
      6         -1.433230   0.000000
      7          0.962145   0.000000
      8          1.497514   0.000000
      9          3.130010   0.000000
     10          3.338647   0.000000
     11          4.290666   0.000000
     12          5.375854   0.000000
     13          5.664124   0.000000
     14          6.913694   0.000000
     15          7.404701   0.000000
     16          8.407194   0.000000
 
  0.3846154E+00  0.0000000E+00  0.0000000E+00  0.1183432E-01
      1        -14.657097   1.000000
      2        -11.423464   1.000000
      3         -6.597773   1.000000
      4         -4.707384   1.000000
      5         -4.113765   1.000000
      6         -1.274447   0.000000
      7          0.526868   0.000000
      8          1.500459   0.000000
      9          3.497675   0.000000
     10          3.909385   0.000000
     11          4.565437   0.000000
     12          5.792369   0.000000
     13          6.378353   0.000000
     14          6.892608   0.000000
     15          7.402646   0.000000
     16          7.961175   0.000000
 
  0.0000000E+00  0.3846154E+00  0.0000000E+00  0.1183432E-01
      1        -14.672339   1.000000
      2        -11.390420   1.000000
      3         -6.605870   1.000000
      4         -4.721524   1.000000
      5         -4.098023   1.000000
      6         -1.290207   0.000000
      7          0.496277   0.000000
      8          1.508849   0.000000
      9          3.502838   0.000000
     10          3.909840   0.000000
     11          4.572185   0.000000
     12          5.795488   0.000000
     13          6.379505   0.000000
     14          6.894383   0.000000
     15          7.397045   0.000000
     16          7.966764   0.000000
 
 -0.3846154E+00  0.3846154E+00  0.0000000E+00  0.1183432E-01
      1        -14.687597   1.000000
      2        -11.356875   1.000000
      3         -6.613945   1.000000
      4         -4.736536   1.000000
      5         -4.082456   1.000000
      6         -1.304602   0.000000
      7          0.468007   0.000000
      8          1.513395   0.000000
      9          3.507747   0.000000
     10          3.910173   0.000000
     11          4.578980   0.000000
     12          5.798747   0.000000
     13          6.380630   0.000000
     14          6.896316   0.000000
     15          7.391660   0.000000
     16          7.972511   0.000000
 
  0.4615385E+00 -0.2775558E-16  0.0000000E+00  0.1183432E-01
      1        -14.116470   1.000000
      2        -12.059414   1.000000
      3         -6.427783   1.000000
      4         -4.852790   1.000000
      5         -4.535342   1.000000
      6         -1.070779   0.000000
      7          0.205356   0.000000
      8          1.488487   0.000000
      9          3.286747   0.000000
     10          4.854913   0.000000
     11          5.298891   0.000000
     12          5.905854   0.000000
     13          6.233967   0.000000
     14          6.717823   0.000000
     15          7.315292   0.000000
     16          7.372196   0.000000
 
  0.0000000E+00  0.4615385E+00  0.0000000E+00  0.1183432E-01
      1        -14.146842   1.000000
      2        -12.008950   1.000000
      3         -6.446491   1.000000
      4         -4.866172   1.000000
      5         -4.510188   1.000000
      6         -1.086078   0.000000
      7          0.172094   0.000000
      8          1.494559   0.000000
      9          3.302161   0.000000
     10          4.855490   0.000000
     11          5.299030   0.000000
     12          5.906143   0.000000
     13          6.230362   0.000000
     14          6.721787   0.000000
     15          7.318831   0.000000
     16          7.371133   0.000000
 
 -0.4615385E+00  0.4615385E+00  0.0000000E+00  0.1183432E-01
      1        -14.176474   1.000000
      2        -11.958645   1.000000
      3         -6.465201   1.000000
      4         -4.879890   1.000000
      5         -4.485780   1.000000
      6         -1.099140   0.000000
      7          0.139206   0.000000
      8          1.497960   0.000000
      9          3.317215   0.000000
     10          4.856009   0.000000
     11          5.299180   0.000000
     12          5.906518   0.000000
     13          6.226803   0.000000
     14          6.725719   0.000000
     15          7.322673   0.000000
     16          7.370113   0.000000
 
  0.7692308E-01  0.7692308E-01  0.0000000E+00  0.1183432E-01
      1        -16.239958   1.000000
      2        -10.173994   1.000000
      3         -4.691269   1.000000
      4         -3.563373   1.000000
      5         -3.444020   1.000000
      6         -0.038305   0.000000
      7          0.070847   0.000000
      8          1.135921   0.000000
      9          2.247136   0.000000
     10          2.269426   0.000000
     11          3.603258   0.000000
     12          4.578448   0.000000
     13          5.429196   0.000000
     14          6.656960   0.000000
     15          6.669648   0.000000
     16          7.381280   0.000000
 
 -0.7692308E-01  0.1538462E+00  0.0000000E+00  0.1183432E-01
      1        -16.241794   1.000000
      2        -10.169742   1.000000
      3         -4.631873   1.000000
      4         -3.620280   1.000000
      5         -3.459896   1.000000
      6         -0.005699   0.000000
      7          0.024561   0.000000
      8          1.155284   0.000000
      9          2.237873   0.000000
     10          2.267336   0.000000
     11          3.601748   0.000000
     12          4.575926   0.000000
     13          5.462981   0.000000
     14          6.657499   0.000000
     15          6.679628   0.000000
     16          7.374649   0.000000
 
 -0.1538462E+00  0.7692308E-01  0.0000000E+00  0.1183432E-01
      1        -16.240884   1.000000
      2        -10.171848   1.000000
      3         -4.662296   1.000000
      4         -3.588038   1.000000
      5         -3.455292   1.000000
      6         -0.010724   0.000000
      7          0.036043   0.000000
      8          1.146211   0.000000
      9          2.242510   0.000000
     10          2.268403   0.000000
     11          3.602517   0.000000
     12          4.577151   0.000000
     13          5.446148   0.000000
     14          6.652093   0.000000
     15          6.679304   0.000000
     16          7.378076   0.000000
 
  0.1538462E+00  0.7692308E-01  0.0000000E+00  0.1183432E-01
      1        -15.930664   1.000000
      2        -10.240805   1.000000
      3         -5.655712   1.000000
      4         -4.137021   1.000000
      5         -3.381412   1.000000
      6         -0.516858   0.000000
      7          0.616584   0.000000
      8          1.578797   0.000000
      9          2.534114   0.000000
     10          2.664206   0.000000
     11          3.828770   0.000000
     12          4.842238   0.000000
     13          5.092746   0.000000
     14          6.442373   0.000000
     15          7.236951   0.000000
     16          7.328515   0.000000
 
 -0.7692308E-01  0.2307692E+00  0.0000000E+00  0.1183432E-01
      1        -15.934873   1.000000
      2        -10.229431   1.000000
      3         -5.613728   1.000000
      4         -4.188923   1.000000
      5         -3.385624   1.000000
      6         -0.540068   0.000000
      7          0.664148   0.000000
      8          1.543217   0.000000
      9          2.526797   0.000000
     10          2.655264   0.000000
     11          3.827426   0.000000
     12          4.846641   0.000000
     13          5.107550   0.000000
     14          6.447664   0.000000
     15          7.258445   0.000000
     16          7.347793   0.000000
 
 -0.2307692E+00  0.1538462E+00  0.0000000E+00  0.1183432E-01
      1        -15.934428   1.000000
      2        -10.230746   1.000000
      3         -5.620529   1.000000
      4         -4.179116   1.000000
      5         -3.380962   1.000000
      6         -0.549855   0.000000
      7          0.645317   0.000000
      8          1.564900   0.000000
      9          2.527871   0.000000
     10          2.655735   0.000000
     11          3.832108   0.000000
     12          4.841483   0.000000
     13          5.122454   0.000000
     14          6.450394   0.000000
     15          7.231682   0.000000
     16          7.347764   0.000000
 
 -0.1538462E+00  0.2307692E+00  0.0000000E+00  0.1183432E-01
      1        -15.935974   1.000000
      2        -10.226529   1.000000
      3         -5.603662   1.000000
      4         -4.200333   1.000000
      5         -3.383862   1.000000
      6         -0.554268   0.000000
      7          0.667761   0.000000
      8          1.545444   0.000000
      9          2.524907   0.000000
     10          2.652912   0.000000
     11          3.830006   0.000000
     12          4.844521   0.000000
     13          5.122405   0.000000
     14          6.451170   0.000000
     15          7.248705   0.000000
     16          7.353570   0.000000
 
  0.7692308E-01  0.1538462E+00  0.0000000E+00  0.1183432E-01
      1        -15.931750   1.000000
      2        -10.237949   1.000000
      3         -5.646652   1.000000
      4         -4.147343   1.000000
      5         -3.379429   1.000000
      6         -0.532179   0.000000
      7          0.621129   0.000000
      8          1.580795   0.000000
      9          2.532760   0.000000
     10          2.661345   0.000000
     11          3.831547   0.000000
     12          4.840360   0.000000
     13          5.107687   0.000000
     14          6.445880   0.000000
     15          7.225390   0.000000
     16          7.335742   0.000000
 
  0.2307692E+00 -0.7692308E-01  0.0000000E+00  0.1183432E-01
      1        -15.932241   1.000000
      2        -10.236505   1.000000
      3         -5.639617   1.000000
      4         -4.157423   1.000000
      5         -3.384703   1.000000
      6         -0.520334   0.000000
      7          0.637141   0.000000
      8          1.560690   0.000000
      9          2.531123   0.000000
     10          2.660939   0.000000
     11          3.826754   0.000000
     12          4.845498   0.000000
     13          5.092640   0.000000
     14          6.443373   0.000000
     15          7.253123   0.000000
     16          7.334635   0.000000
 
  0.2307692E+00  0.7692308E-01  0.0000000E+00  0.1183432E-01
      1        -15.479103   1.000000
      2        -10.519933   1.000000
      3         -6.339589   1.000000
      4         -4.658578   1.000000
      5         -3.441421   1.000000
      6         -0.934712   0.000000
      7          1.023674   0.000000
      8          1.447101   0.000000
      9          2.910264   0.000000
     10          3.165592   0.000000
     11          4.182029   0.000000
     12          5.140199   0.000000
     13          5.505832   0.000000
     14          6.247227   0.000000
     15          7.539249   0.000000
     16          8.024799   0.000000
 
 -0.7692308E-01  0.3076923E+00  0.0000000E+00  0.1183432E-01
      1        -15.487068   1.000000
      2        -10.496837   1.000000
      3         -6.321827   1.000000
      4         -4.691548   1.000000
      5         -3.443685   1.000000
      6         -0.945253   0.000000
      7          1.079072   0.000000
      8          1.378070   0.000000
      9          2.912198   0.000000
     10          3.159968   0.000000
     11          4.177507   0.000000
     12          5.147206   0.000000
     13          5.510783   0.000000
     14          6.241333   0.000000
     15          7.557398   0.000000
     16          8.053739   0.000000
 
 -0.3076923E+00  0.2307692E+00  0.0000000E+00  0.1183432E-01
      1        -15.488396   1.000000
      2        -10.493390   1.000000
      3         -6.319629   1.000000
      4         -4.695251   1.000000
      5         -3.433850   1.000000
      6         -0.963079   0.000000
      7          1.038427   0.000000
      8          1.412158   0.000000
      9          2.908384   0.000000
     10          3.158556   0.000000
     11          4.189936   0.000000
     12          5.154594   0.000000
     13          5.523272   0.000000
     14          6.260029   0.000000
     15          7.551080   0.000000
     16          8.025550   0.000000
 
 -0.2307692E+00  0.3076923E+00  0.0000000E+00  0.1183432E-01
      1        -15.490602   1.000000
      2        -10.486817   1.000000
      3         -6.314140   1.000000
      4         -4.705368   1.000000
      5         -3.437954   1.000000
      6         -0.960515   0.000000
      7          1.072323   0.000000
      8          1.375855   0.000000
      9          2.910184   0.000000
     10          3.157250   0.000000
     11          4.184343   0.000000
     12          5.154360   0.000000
     13          5.520753   0.000000
     14          6.251671   0.000000
     15          7.559271   0.000000
     16          8.044955   0.000000
 
  0.7692308E-01  0.2307692E+00  0.0000000E+00  0.1183432E-01
      1        -15.482601   1.000000
      2        -10.510094   1.000000
      3         -6.332595   1.000000
      4         -4.671349   1.000000
      5         -3.435518   1.000000
      6         -0.950685   0.000000
      7          1.015258   0.000000
      8          1.447081   0.000000
      9          2.908603   0.000000
     10          3.162681   0.000000
     11          4.188942   0.000000
     12          5.147702   0.000000
     13          5.515554   0.000000
     14          6.257805   0.000000
     15          7.540852   0.000000
     16          8.015177   0.000000
 
  0.3076923E+00 -0.7692308E-01  0.0000000E+00  0.1183432E-01
      1        -15.481363   1.000000
      2        -10.513249   1.000000
      3         -6.334299   1.000000
      4         -4.668673   1.000000
      5         -3.445478   1.000000
      6         -0.931846   0.000000
      7          1.053880   0.000000
      8          1.414105   0.000000
      9          2.912058   0.000000
     10          3.164185   0.000000
     11          4.176187   0.000000
     12          5.139941   0.000000
     13          5.503579   0.000000
     14          6.239117   0.000000
     15          7.547593   0.000000
     16          8.043982   0.000000
 
  0.3076923E+00  0.7692308E-01  0.0000000E+00  0.1183432E-01
      1        -14.910182   1.000000
      2        -11.094503   1.000000
      3         -6.576899   1.000000
      4         -5.022247   1.000000
      5         -3.779741   1.000000
      6         -0.993872   0.000000
      7          0.903135   0.000000
      8          1.197764   0.000000
      9          3.566009   0.000000
     10          3.632006   0.000000
     11          4.413442   0.000000
     12          5.615817   0.000000
     13          6.036585   0.000000
     14          6.703507   0.000000
     15          7.628089   0.000000
     16          8.042502   0.000000
 
 -0.7692308E-01  0.3846154E+00  0.0000000E+00  0.1183432E-01
      1        -14.924528   1.000000
      2        -11.058615   1.000000
      3         -6.581417   1.000000
      4         -5.038020   1.000000
      5         -3.777899   1.000000
      6         -0.996275   0.000000
      7          0.834865   0.000000
      8          1.244401   0.000000
      9          3.564495   0.000000
     10          3.627922   0.000000
     11          4.418336   0.000000
     12          5.623962   0.000000
     13          6.037661   0.000000
     14          6.695432   0.000000
     15          7.621820   0.000000
     16          8.036297   0.000000
 
 -0.3846154E+00  0.3076923E+00  0.0000000E+00  0.1183432E-01
      1        -14.930416   1.000000
      2        -11.044360   1.000000
      3         -6.581170   1.000000
      4         -5.050384   1.000000
      5         -3.760681   1.000000
      6         -1.021669   0.000000
      7          0.851734   0.000000
      8          1.211150   0.000000
      9          3.565827   0.000000
     10          3.630025   0.000000
     11          4.431407   0.000000
     12          5.629782   0.000000
     13          6.040208   0.000000
     14          6.720052   0.000000
     15          7.623630   0.000000
     16          8.029612   0.000000
 
 -0.3076923E+00  0.3846154E+00  0.0000000E+00  0.1183432E-01
      1        -14.933212   1.000000
      2        -11.037057   1.000000
      3         -6.582714   1.000000
      4         -5.051763   1.000000
      5         -3.765879   1.000000
      6         -1.013706   0.000000
      7          0.826267   0.000000
      8          1.234532   0.000000
      9          3.564860   0.000000
     10          3.627991   0.000000
     11          4.428631   0.000000
     12          5.630608   0.000000
     13          6.039738   0.000000
     14          6.709279   0.000000
     15          7.620748   0.000000
     16          8.030061   0.000000
 
  0.7692308E-01  0.3076923E+00  0.0000000E+00  0.1183432E-01
      1        -14.918836   1.000000
      2        -11.073336   1.000000
      3         -6.578380   1.000000
      4         -5.035102   1.000000
      5         -3.767667   1.000000
      6         -1.012168   0.000000
      7          0.887928   0.000000
      8          1.195576   0.000000
      9          3.566294   0.000000
     10          3.632263   0.000000
     11          4.423873   0.000000
     12          5.622300   0.000000
     13          6.038622   0.000000
     14          6.717261   0.000000
     15          7.626959   0.000000
     16          8.035882   0.000000
 
  0.3846154E+00 -0.7692308E-01  0.0000000E+00  0.1183432E-01
      1        -14.913079   1.000000
      2        -11.087084   1.000000
      3         -6.578392   1.000000
      4         -5.023791   1.000000
      5         -3.784769   1.000000
      6         -0.985940   0.000000
      7          0.874475   0.000000
      8          1.224270   0.000000
      9          3.565183   0.000000
     10          3.629691   0.000000
     11          4.410686   0.000000
     12          5.616652   0.000000
     13          6.036094   0.000000
     14          6.692453   0.000000
     15          7.625838   0.000000
     16          8.042461   0.000000
 
  0.3846154E+00  0.7692308E-01  0.0000000E+00  0.1183432E-01
      1        -14.300310   1.000000
      2        -11.801988   1.000000
      3         -6.507229   1.000000
      4         -5.169607   1.000000
      5         -4.286693   1.000000
      6         -0.766617   0.000000
      7          0.371779   0.000000
      8          1.280377   0.000000
      9          3.513293   0.000000
     10          4.448225   0.000000
     11          4.979036   0.000000
     12          6.104457   0.000000
     13          6.664342   0.000000
     14          6.863567   0.000000
     15          6.967355   0.000000
     16          7.653236   0.000000
 
 -0.7692308E-01  0.4615385E+00  0.0000000E+00  0.1183432E-01
      1        -14.326190   1.000000
      2        -11.753617   1.000000
      3         -6.527082   1.000000
      4         -5.173279   1.000000
      5         -4.277155   1.000000
      6         -0.764095   0.000000
      7          0.309035   0.000000
      8          1.311017   0.000000
      9          3.515570   0.000000
     10          4.450504   0.000000
     11          4.983346   0.000000
     12          6.106029   0.000000
     13          6.663931   0.000000
     14          6.856613   0.000000
     15          6.968339   0.000000
     16          7.652500   0.000000
 
 -0.4615385E+00  0.3846154E+00  0.0000000E+00  0.1183432E-01
      1        -14.343334   1.000000
      2        -11.721450   1.000000
      3         -6.536315   1.000000
      4         -5.190552   1.000000
      5         -4.251833   1.000000
      6         -0.794199   0.000000
      7          0.316749   0.000000
      8          1.286503   0.000000
      9          3.534886   0.000000
     10          4.448815   0.000000
     11          4.986089   0.000000
     12          6.103400   0.000000
     13          6.669357   0.000000
     14          6.860006   0.000000
     15          6.973200   0.000000
     16          7.652638   0.000000
 
 -0.3846154E+00  0.4615385E+00  0.0000000E+00  0.1183432E-01
      1        -14.346083   1.000000
      2        -11.716036   1.000000
      3         -6.539873   1.000000
      4         -5.186386   1.000000
      5         -4.257020   1.000000
      6         -0.782696   0.000000
      7          0.293939   0.000000
      8          1.303475   0.000000
      9          3.529186   0.000000
     10          4.450110   0.000000
     11          4.986643   0.000000
     12          6.104847   0.000000
     13          6.667426   0.000000
     14          6.856534   0.000000
     15          6.971937   0.000000
     16          7.652496   0.000000
 
  0.7692308E-01  0.3846154E+00  0.0000000E+00  0.1183432E-01
      1        -14.320498   1.000000
      2        -11.764633   1.000000
      3         -6.519973   1.000000
      4         -5.181725   1.000000
      5         -4.266731   1.000000
      6         -0.786836   0.000000
      7          0.355271   0.000000
      8          1.276177   0.000000
      9          3.527059   0.000000
     10          4.447909   0.000000
     11          4.982248   0.000000
     12          6.103205   0.000000
     13          6.667977   0.000000
     14          6.863450   0.000000
     15          6.970782   0.000000
     16          7.652912   0.000000
 
  0.4615385E+00 -0.7692308E-01  0.0000000E+00  0.1183432E-01
      1        -14.303258   1.000000
      2        -11.796380   1.000000
      3         -6.510782   1.000000
      4         -5.165328   1.000000
      5         -4.291928   1.000000
      6         -0.755353   0.000000
      7          0.348217   0.000000
      8          1.298355   0.000000
      9          3.507505   0.000000
     10          4.449524   0.000000
     11          4.979579   0.000000
     12          6.105834   0.000000
     13          6.662223   0.000000
     14          6.860210   0.000000
     15          6.966171   0.000000
     16          7.652960   0.000000
 
  0.4615385E+00  0.7692308E-01  0.0000000E+00  0.1183432E-01
      1        -13.956590   1.000000
      2        -12.194869   1.000000
      3         -6.432846   1.000000
      4         -5.133006   1.000000
      5         -4.596947   1.000000
      6         -0.555857   0.000000
      7          0.076591   0.000000
      8          1.323931   0.000000
      9          3.346977   0.000000
     10          5.430160   0.000000
     11          5.474464   0.000000
     12          5.784459   0.000000
     13          6.077957   0.000000
     14          6.742365   0.000000
     15          7.203873   0.000000
     16          7.929231   0.000000
 
 -0.7692308E-01 -0.4615385E+00  0.0000000E+00  0.1183432E-01
      1        -13.991539   1.000000
      2        -12.140327   1.000000
      3         -6.453753   1.000000
      4         -5.145837   1.000000
      5         -4.570517   1.000000
      6         -0.568685   0.000000
      7          0.046149   0.000000
      8          1.326899   0.000000
      9          3.361914   0.000000
     10          5.432362   0.000000
     11          5.472518   0.000000
     12          5.780995   0.000000
     13          6.082651   0.000000
     14          6.739963   0.000000
     15          7.207027   0.000000
     16          7.929935   0.000000
 
  0.4615385E+00  0.4615385E+00  0.0000000E+00  0.1183432E-01
      1        -14.025254   1.000000
      2        -12.086453   1.000000
      3         -6.474661   1.000000
      4         -5.159217   1.000000
      5         -4.544396   1.000000
      6         -0.578045   0.000000
      7          0.014374   0.000000
      8          1.327485   0.000000
      9          3.376651   0.000000
     10          5.434607   0.000000
     11          5.470373   0.000000
     12          5.777562   0.000000
     13          6.087417   0.000000
     14          6.737633   0.000000
     15          7.210198   0.000000
     16          7.930988   0.000000
 
  0.1538462E+00  0.1538462E+00  0.0000000E+00  0.1183432E-01
      1        -15.553064   1.000000
      2        -10.443634   1.000000
      3         -6.130981   1.000000
      4         -4.968543   1.000000
      5         -3.380603   1.000000
      6         -0.237815   0.000000
      7          0.422835   0.000000
      8          1.725956   0.000000
      9          2.944137   0.000000
     10          3.000663   0.000000
     11          3.959609   0.000000
     12          5.018533   0.000000
     13          5.316853   0.000000
     14          6.359401   0.000000
     15          7.469351   0.000000
     16          7.866874   0.000000
 
 -0.1538462E+00  0.3076923E+00  0.0000000E+00  0.1183432E-01
      1        -15.561262   1.000000
      2        -10.419488   1.000000
      3         -6.092237   1.000000
      4         -5.025835   1.000000
      5         -3.382703   1.000000
      6         -0.282002   0.000000
      7          0.505421   0.000000
      8          1.662784   0.000000
      9          2.942968   0.000000
     10          2.993135   0.000000
     11          3.955940   0.000000
     12          5.024613   0.000000
     13          5.318565   0.000000
     14          6.361430   0.000000
     15          7.468977   0.000000
     16          7.917876   0.000000
 
 -0.3076923E+00  0.1538462E+00  0.0000000E+00  0.1183432E-01
      1        -15.557204   1.000000
      2        -10.431456   1.000000
      3         -6.111913   1.000000
      4         -4.997067   1.000000
      5         -3.381661   1.000000
      6         -0.260020   0.000000
      7          0.463974   0.000000
      8          1.694643   0.000000
      9          2.943243   0.000000
     10          2.996957   0.000000
     11          3.957815   0.000000
     12          5.021529   0.000000
     13          5.317731   0.000000
     14          6.360543   0.000000
     15          7.469117   0.000000
     16          7.892559   0.000000
 
  0.2307692E+00  0.1538462E+00  0.0000000E+00  0.1183432E-01
      1        -15.042412   1.000000
      2        -10.892807   1.000000
      3         -6.369894   1.000000
      4         -5.597277   1.000000
      5         -3.570239   1.000000
      6         -0.332152   0.000000
      7          0.511900   0.000000
      8          1.567874   0.000000
      9          3.444429   0.000000
     10          3.582408   0.000000
     11          4.324098   0.000000
     12          5.438425   0.000000
     13          5.897340   0.000000
     14          5.939775   0.000000
     15          7.507313   0.000000
     16          8.437384   0.000000
 
 -0.1538462E+00  0.3846154E+00  0.0000000E+00  0.1183432E-01
      1        -15.056409   1.000000
      2        -10.854585   1.000000
      3         -6.359014   1.000000
      4         -5.634240   1.000000
      5         -3.567832   1.000000
      6         -0.343553   0.000000
      7          0.526097   0.000000
      8          1.545394   0.000000
      9          3.442869   0.000000
     10          3.575192   0.000000
     11          4.316857   0.000000
     12          5.437391   0.000000
     13          5.904207   0.000000
     14          5.943130   0.000000
     15          7.499649   0.000000
     16          8.428449   0.000000
 
 -0.3846154E+00  0.2307692E+00  0.0000000E+00  0.1183432E-01
      1        -15.053701   1.000000
      2        -10.862417   1.000000
      3         -6.359797   1.000000
      4         -5.628186   1.000000
      5         -3.562366   1.000000
      6         -0.357236   0.000000
      7          0.535603   0.000000
      8          1.531317   0.000000
      9          3.440689   0.000000
     10          3.581791   0.000000
     11          4.334986   0.000000
     12          5.443581   0.000000
     13          5.909397   0.000000
     14          5.943610   0.000000
     15          7.497090   0.000000
     16          8.429601   0.000000
 
 -0.2307692E+00  0.3846154E+00  0.0000000E+00  0.1183432E-01
      1        -15.059224   1.000000
      2        -10.847095   1.000000
      3         -6.355657   1.000000
      4         -5.642742   1.000000
      5         -3.563467   1.000000
      6         -0.356355   0.000000
      7          0.537110   0.000000
      8          1.528462   0.000000
      9          3.440743   0.000000
     10          3.577464   0.000000
     11          4.326554   0.000000
     12          5.441079   0.000000
     13          5.910015   0.000000
     14          5.944577   0.000000
     15          7.495338   0.000000
     16          8.426309   0.000000
 
  0.1538462E+00  0.2307692E+00  0.0000000E+00  0.1183432E-01
      1        -15.045214   1.000000
      2        -10.885465   1.000000
      3         -6.367129   1.000000
      4         -5.604959   1.000000
      5         -3.565854   1.000000
      6         -0.345490   0.000000
      7          0.522040   0.000000
      8          1.552567   0.000000
      9          3.442424   0.000000
     10          3.584441   0.000000
     11          4.333801   0.000000
     12          5.442222   0.000000
     13          5.903036   0.000000
     14          5.941178   0.000000
     15          7.503079   0.000000
     16          8.434976   0.000000
 
  0.3846154E+00 -0.1538462E+00  0.0000000E+00  0.1183432E-01
      1        -15.048084   1.000000
      2        -10.877248   1.000000
      3         -6.365900   1.000000
      4         -5.612021   1.000000
      5         -3.571115   1.000000
      6         -0.331098   0.000000
      7          0.514435   0.000000
      8          1.563571   0.000000
      9          3.444834   0.000000
     10          3.577468   0.000000
     11          4.315592   0.000000
     12          5.436095   0.000000
     13          5.897894   0.000000
     14          5.940759   0.000000
     15          7.505640   0.000000
     16          8.434141   0.000000
 
  0.3076923E+00  0.1538462E+00  0.0000000E+00  0.1183432E-01
      1        -14.437999   1.000000
      2        -11.546688   1.000000
      3         -6.510871   1.000000
      4         -5.759964   1.000000
      5         -4.000104   1.000000
      6         -0.339774   0.000000
      7          0.502117   0.000000
      8          1.315453   0.000000
      9          3.922858   0.000000
     10          4.218014   0.000000
     11          4.795018   0.000000
     12          5.992892   0.000000
     13          6.100863   0.000000
     14          6.740980   0.000000
     15          7.403382   0.000000
     16          7.690665   0.000000
 
 -0.1538462E+00  0.4615385E+00  0.0000000E+00  0.1183432E-01
      1        -14.461232   1.000000
      2        -11.497616   1.000000
      3         -6.536784   1.000000
      4         -5.762836   1.000000
      5         -3.991213   1.000000
      6         -0.330626   0.000000
      7          0.443025   0.000000
      8          1.347470   0.000000
      9          3.909497   0.000000
     10          4.221428   0.000000
     11          4.799282   0.000000
     12          5.996951   0.000000
     13          6.087951   0.000000
     14          6.744405   0.000000
     15          7.390020   0.000000
     16          7.694747   0.000000
 
 -0.4615385E+00  0.3076923E+00  0.0000000E+00  0.1183432E-01
      1        -14.464346   1.000000
      2        -11.491568   1.000000
      3         -6.533171   1.000000
      4         -5.773206   1.000000
      5         -3.978693   1.000000
      6         -0.372199   0.000000
      7          0.511394   0.000000
      8          1.284214   0.000000
      9          3.927861   0.000000
     10          4.218557   0.000000
     11          4.805682   0.000000
     12          5.996999   0.000000
     13          6.110964   0.000000
     14          6.745236   0.000000
     15          7.384932   0.000000
     16          7.691458   0.000000
 
 -0.3076923E+00  0.4615385E+00  0.0000000E+00  0.1183432E-01
      1        -14.470918   1.000000
      2        -11.477251   1.000000
      3         -6.543079   1.000000
      4         -5.770749   1.000000
      5         -3.979963   1.000000
      6         -0.355579   0.000000
      7          0.468381   0.000000
      8          1.316629   0.000000
      9          3.917411   0.000000
     10          4.220641   0.000000
     11          4.804980   0.000000
     12          5.998346   0.000000
     13          6.099145   0.000000
     14          6.746096   0.000000
     15          7.382178   0.000000
     16          7.693941   0.000000
 
  0.1538462E+00  0.3076923E+00  0.0000000E+00  0.1183432E-01
      1        -14.447776   1.000000
      2        -11.526573   1.000000
      3         -6.517132   1.000000
      4         -5.767367   1.000000
      5         -3.988939   1.000000
      6         -0.364520   0.000000
      7          0.527595   0.000000
      8          1.284778   0.000000
      9          3.930611   0.000000
     10          4.217290   0.000000
     11          4.800601   0.000000
     12          5.994291   0.000000
     13          6.111981   0.000000
     14          6.742680   0.000000
     15          7.395441   0.000000
     16          7.689831   0.000000
 
  0.4615385E+00 -0.1538462E+00  0.0000000E+00  0.1183432E-01
      1        -14.444886   1.000000
      2        -11.532044   1.000000
      3         -6.520621   1.000000
      4         -5.757888   1.000000
      5         -4.001105   1.000000
      6         -0.322503   0.000000
      7          0.460474   0.000000
      8          1.345816   0.000000
      9          3.912196   0.000000
     10          4.220068   0.000000
     11          4.794402   0.000000
     12          5.994192   0.000000
     13          6.088668   0.000000
     14          6.741843   0.000000
     15          7.400719   0.000000
     16          7.693094   0.000000
 
  0.3846154E+00  0.1538462E+00  0.0000000E+00  0.1183432E-01
      1        -13.881660   1.000000
      2        -12.164372   1.000000
      3         -6.651500   1.000000
      4         -5.511899   1.000000
      5         -4.491719   1.000000
      6         -0.270450   0.000000
      7          0.468500   0.000000
      8          1.170991   0.000000
      9          3.737588   0.000000
     10          5.171510   0.000000
     11          5.574666   0.000000
     12          6.177636   0.000000
     13          6.401232   0.000000
     14          6.614589   0.000000
     15          7.270138   0.000000
     16          7.670540   0.000000
 
 -0.1538462E+00 -0.4615385E+00  0.0000000E+00  0.1183432E-01
      1        -13.917759   1.000000
      2        -12.107420   1.000000
      3         -6.676963   1.000000
      4         -5.517067   1.000000
      5         -4.472686   1.000000
      6         -0.272501   0.000000
      7          0.418720   0.000000
      8          1.197685   0.000000
      9          3.739262   0.000000
     10          5.173016   0.000000
     11          5.576238   0.000000
     12          6.176991   0.000000
     13          6.394168   0.000000
     14          6.613160   0.000000
     15          7.266924   0.000000
     16          7.671492   0.000000
 
  0.4615385E+00  0.3846154E+00  0.0000000E+00  0.1183432E-01
      1        -13.939192   1.000000
      2        -12.073224   1.000000
      3         -6.688359   1.000000
      4         -5.530833   1.000000
      5         -4.450266   1.000000
      6         -0.310815   0.000000
      7          0.465805   0.000000
      8          1.152895   0.000000
      9          3.753558   0.000000
     10          5.171460   0.000000
     11          5.576783   0.000000
     12          6.182691   0.000000
     13          6.395383   0.000000
     14          6.609275   0.000000
     15          7.270046   0.000000
     16          7.672414   0.000000
 
 -0.3846154E+00 -0.4615385E+00  0.0000000E+00  0.1183432E-01
      1        -13.943575   1.000000
      2        -12.065990   1.000000
      3         -6.693085   1.000000
      4         -5.528142   1.000000
      5         -4.451373   1.000000
      6         -0.298623   0.000000
      7          0.433482   0.000000
      8          1.176472   0.000000
      9          3.749419   0.000000
     10          5.172456   0.000000
     11          5.577149   0.000000
     12          6.180635   0.000000
     13          6.392579   0.000000
     14          6.610082   0.000000
     15          7.268031   0.000000
     16          7.672429   0.000000
 
  0.1538462E+00  0.3846154E+00  0.0000000E+00  0.1183432E-01
      1        -13.908517   1.000000
      2        -12.122360   1.000000
      3         -6.667475   1.000000
      4         -5.522434   1.000000
      5         -4.470557   1.000000
      6         -0.297590   0.000000
      7          0.483666   0.000000
      8          1.150909   0.000000
      9          3.747590   0.000000
     10          5.171013   0.000000
     11          5.575541   0.000000
     12          6.181309   0.000000
     13          6.399700   0.000000
     14          6.611497   0.000000
     15          7.271164   0.000000
     16          7.671550   0.000000
 
 -0.4615385E+00 -0.1538462E+00  0.0000000E+00  0.1183432E-01
      1        -13.886545   1.000000
      2        -12.156640   1.000000
      3         -6.656264   1.000000
      4         -5.509224   1.000000
      5         -4.492739   1.000000
      6         -0.257480   0.000000
      7          0.435763   0.000000
      8          1.194231   0.000000
      9          3.733399   0.000000
     10          5.172517   0.000000
     11          5.574998   0.000000
     12          6.175370   0.000000
     13          6.398507   0.000000
     14          6.615443   0.000000
     15          7.267911   0.000000
     16          7.670466   0.000000
 
  0.2307692E+00  0.2307692E+00  0.0000000E+00  0.1183432E-01
      1        -14.490851   1.000000
      2        -11.431866   1.000000
      3         -6.415856   1.000000
      4         -6.112083   1.000000
      5         -3.872232   1.000000
      6         -0.143552   0.000000
      7          0.243959   0.000000
      8          1.805065   0.000000
      9          4.105698   0.000000
     10          4.168491   0.000000
     11          4.775913   0.000000
     12          5.503479   0.000000
     13          5.816639   0.000000
     14          6.643139   0.000000
     15          7.041942   0.000000
     16          8.589617   0.000000
 
 -0.2307692E+00  0.4615385E+00  0.0000000E+00  0.1183432E-01
      1        -14.513232   1.000000
      2        -11.381806   1.000000
      3         -6.457346   1.000000
      4         -6.102254   1.000000
      5         -3.862650   1.000000
      6         -0.141735   0.000000
      7          0.217314   0.000000
      8          1.821452   0.000000
      9          4.074478   0.000000
     10          4.174135   0.000000
     11          4.764166   0.000000
     12          5.522885   0.000000
     13          5.805936   0.000000
     14          6.646326   0.000000
     15          7.035571   0.000000
     16          8.572399   0.000000
 
 -0.4615385E+00  0.2307692E+00  0.0000000E+00  0.1183432E-01
      1        -14.502205   1.000000
      2        -11.406604   1.000000
      3         -6.436646   1.000000
      4         -6.107357   1.000000
      5         -3.867269   1.000000
      6         -0.142871   0.000000
      7          0.231375   0.000000
      8          1.812496   0.000000
      9          4.090030   0.000000
     10          4.171332   0.000000
     11          4.769992   0.000000
     12          5.513169   0.000000
     13          5.811318   0.000000
     14          6.644713   0.000000
     15          7.038746   0.000000
     16          8.580927   0.000000
 
  0.3076923E+00  0.2307692E+00  0.0000000E+00  0.1183432E-01
      1        -13.873751   1.000000
      2        -12.068786   1.000000
      3         -6.910832   1.000000
      4         -5.700888   1.000000
      5         -4.328881   1.000000
      6         -0.560404   0.000000
      7          0.756264   0.000000
      8          1.690903   0.000000
      9          4.501589   0.000000
     10          5.006174   0.000000
     11          5.310401   0.000000
     12          5.726019   0.000000
     13          6.171868   0.000000
     14          7.213314   0.000000
     15          7.410960   0.000000
     16          7.542024   0.000000
 
 -0.2307692E+00 -0.4615385E+00  0.0000000E+00  0.1183432E-01
      1        -13.908601   1.000000
      2        -12.011325   1.000000
      3         -6.939600   1.000000
      4         -5.703108   1.000000
      5         -4.312448   1.000000
      6         -0.569447   0.000000
      7          0.724499   0.000000
      8          1.724960   0.000000
      9          4.479678   0.000000
     10          5.003997   0.000000
     11          5.303558   0.000000
     12          5.727328   0.000000
     13          6.165164   0.000000
     14          7.205907   0.000000
     15          7.419610   0.000000
     16          7.548184   0.000000
 
  0.4615385E+00  0.3076923E+00  0.0000000E+00  0.1183432E-01
      1        -13.905687   1.000000
      2        -12.016442   1.000000
      3         -6.934477   1.000000
      4         -5.707922   1.000000
      5         -4.308504   1.000000
      6         -0.578015   0.000000
      7          0.751955   0.000000
      8          1.689747   0.000000
      9          4.490509   0.000000
     10          5.004361   0.000000
     11          5.306614   0.000000
     12          5.737927   0.000000
     13          6.167153   0.000000
     14          7.206974   0.000000
     15          7.415929   0.000000
     16          7.548073   0.000000
 
 -0.3076923E+00 -0.4615385E+00  0.0000000E+00  0.1183432E-01
      1        -13.917884   1.000000
      2        -11.995925   1.000000
      3         -6.945799   1.000000
      4         -5.707000   1.000000
      5         -4.304433   1.000000
      6         -0.578112   0.000000
      7          0.732030   0.000000
      8          1.712878   0.000000
      9          4.479679   0.000000
     10          5.003572   0.000000
     11          5.303335   0.000000
     12          5.734917   0.000000
     13          6.164254   0.000000
     14          7.204178   0.000000
     15          7.419840   0.000000
     16          7.550359   0.000000
 
  0.2307692E+00  0.3076923E+00  0.0000000E+00  0.1183432E-01
      1        -13.883386   1.000000
      2        -12.053225   1.000000
      3         -6.916919   1.000000
      4         -5.704607   1.000000
      5         -4.320959   1.000000
      6         -0.569350   0.000000
      7          0.764061   0.000000
      8          1.679202   0.000000
      9          4.501253   0.000000
     10          5.005706   0.000000
     11          5.310027   0.000000
     12          5.733867   0.000000
     13          6.171099   0.000000
     14          7.211536   0.000000
     15          7.411394   0.000000
     16          7.543917   0.000000
 
 -0.4615385E+00 -0.2307692E+00  0.0000000E+00  0.1183432E-01
      1        -13.886786   1.000000
      2        -12.047385   1.000000
      3         -6.922191   1.000000
      4         -5.700313   1.000000
      5         -4.324439   1.000000
      6         -0.560401   0.000000
      7          0.736614   0.000000
      8          1.713537   0.000000
      9          4.490847   0.000000
     10          5.005254   0.000000
     11          5.307213   0.000000
     12          5.722482   0.000000
     13          6.168836   0.000000
     14          7.210480   0.000000
     15          7.415267   0.000000
     16          7.544006   0.000000
 
  0.3846154E+00  0.2307692E+00  0.0000000E+00  0.1183432E-01
      1        -13.478635   1.000000
      2        -12.473314   1.000000
      3         -7.084213   1.000000
      4         -5.375603   1.000000
      5         -4.667997   1.000000
      6         -0.711113   0.000000
      7          1.245449   0.000000
      8          1.318319   0.000000
      9          4.440298   0.000000
     10          5.450658   0.000000
     11          6.047640   0.000000
     12          6.099761   0.000000
     13          6.219200   0.000000
     14          6.892724   0.000000
     15          7.140559   0.000000
     16          7.920039   0.000000
 
 -0.2307692E+00 -0.3846154E+00  0.0000000E+00  0.1183432E-01
      1        -13.513098   1.000000
      2        -12.427623   1.000000
      3         -7.096735   1.000000
      4         -5.388550   1.000000
      5         -4.647343   1.000000
      6         -0.721733   0.000000
      7          1.225625   0.000000
      8          1.335047   0.000000
      9          4.436482   0.000000
     10          5.447177   0.000000
     11          6.046377   0.000000
     12          6.096570   0.000000
     13          6.219378   0.000000
     14          6.893084   0.000000
     15          7.139283   0.000000
     16          7.948011   0.000000
 
  0.3846154E+00  0.3846154E+00  0.0000000E+00  0.1183432E-01
      1        -13.545498   1.000000
      2        -12.383710   1.000000
      3         -7.109466   1.000000
      4         -5.401487   1.000000
      5         -4.626748   1.000000
      6         -0.731964   0.000000
      7          1.215157   0.000000
      8          1.341633   0.000000
      9          4.432964   0.000000
     10          5.443683   0.000000
     11          6.045116   0.000000
     12          6.092854   0.000000
     13          6.219762   0.000000
     14          6.893538   0.000000
     15          7.137885   0.000000
     16          7.976328   0.000000
 
  0.3076923E+00  0.3076923E+00  0.0000000E+00  0.1183432E-01
      1        -13.274897   1.000000
      2        -12.628190   1.000000
      3         -7.285349   1.000000
      4         -5.262381   1.000000
      5         -4.736946   1.000000
      6         -0.933904   0.000000
      7          1.299508   0.000000
      8          1.677354   0.000000
      9          5.136570   0.000000
     10          5.535847   0.000000
     11          5.653823   0.000000
     12          6.155531   0.000000
     13          6.683136   0.000000
     14          6.995788   0.000000
     15          7.242223   0.000000
     16          7.376215   0.000000
 
 -0.3076923E+00 -0.3846154E+00  0.0000000E+00  0.1183432E-01
      1        -13.325834   1.000000
      2        -12.566218   1.000000
      3         -7.298251   1.000000
      4         -5.276793   1.000000
      5         -4.715605   1.000000
      6         -0.940726   0.000000
      7          1.264817   0.000000
      8          1.717103   0.000000
      9          5.127210   0.000000
     10          5.550747   0.000000
     11          5.596746   0.000000
     12          6.170752   0.000000
     13          6.677787   0.000000
     14          7.023213   0.000000
     15          7.230763   0.000000
     16          7.388534   0.000000
 
  0.3846154E+00  0.3076923E+00  0.0000000E+00  0.1183432E-01
      1        -13.301678   1.000000
      2        -12.595851   1.000000
      3         -7.291832   1.000000
      4         -5.269971   1.000000
      5         -4.725890   1.000000
      6         -0.937274   0.000000
      7          1.281547   0.000000
      8          1.697750   0.000000
      9          5.131815   0.000000
     10          5.542947   0.000000
     11          5.625262   0.000000
     12          6.163043   0.000000
     13          6.680369   0.000000
     14          7.009951   0.000000
     15          7.236387   0.000000
     16          7.382650   0.000000
