 #energy tdos sumdos updos dndos awdos
       -15.0088         0.2477         0.0000         0.1239        -0.1238         0.2477
       -15.0054         0.2562         0.0000         0.1281        -0.1281         0.2562
       -15.0020         0.2647         0.0009         0.1323        -0.1323         0.2647
       -14.9985         0.2731         0.0018         0.1366        -0.1366         0.2731
       -14.9951         0.2816         0.0027         0.1408        -0.1408         0.2816
       -14.9917         0.2899         0.0036         0.1450        -0.1449         0.2899
       -14.9882         0.2982         0.0046         0.1491        -0.1491         0.2982
       -14.9848         0.3064         0.0056         0.1532        -0.1532         0.3064
       -14.9813         0.3144         0.0067         0.1572        -0.1572         0.3144
       -14.9779         0.3224         0.0077         0.1612        -0.1612         0.3224
       -14.9745         0.3302         0.0088         0.1651        -0.1651         0.3302
       -14.9710         0.3379         0.0099         0.1690        -0.1690         0.3379
       -14.9676         0.3455         0.0111         0.1727        -0.1727         0.3455
       -14.9642         0.3528         0.0123         0.1764        -0.1764         0.3528
       -14.9607         0.3601         0.0135         0.1800        -0.1800         0.3601
       -14.9573         0.3671         0.0147         0.1835        -0.1835         0.3671
       -14.9539         0.3739         0.0159         0.1870        -0.1870         0.3739
       -14.9504         0.3806         0.0172         0.1903        -0.1903         0.3806
       -14.9470         0.3870         0.0185         0.1935        -0.1935         0.3870
       -14.9436         0.3932         0.0198         0.1966        -0.1966         0.3932
       -14.9401         0.3992         0.0212         0.1996        -0.1996         0.3992
       -14.9367         0.4050         0.0225         0.2025        -0.2025         0.4050
       -14.9333         0.4106         0.0239         0.2053        -0.2053         0.4106
       -14.9298         0.4160         0.0253         0.2080        -0.2080         0.4160
       -14.9264         0.4212         0.0267         0.2106        -0.2106         0.4212
       -14.9229         0.4261         0.0282         0.2130        -0.2130         0.4261
       -14.9195         0.4308         0.0296         0.2154        -0.2154         0.4308
       -14.9161         0.4353         0.0311         0.2176        -0.2176         0.4353
       -14.9126         0.4396         0.0326         0.2198        -0.2198         0.4396
       -14.9092         0.4436         0.0341         0.2218        -0.2218         0.4436
       -14.9058         0.4475         0.0356         0.2238        -0.2237         0.4475
       -14.9023         0.4512         0.0371         0.2256        -0.2256         0.4512
       -14.8989         0.4546         0.0387         0.2273        -0.2273         0.4546
       -14.8955         0.4579         0.0402         0.2289        -0.2289         0.4579
       -14.8920         0.4610         0.0418         0.2305        -0.2305         0.4610
       -14.8886         0.4639         0.0434         0.2319        -0.2319         0.4639
       -14.8852         0.4666         0.0450         0.2333        -0.2333         0.4666
       -14.8817         0.4691         0.0466         0.2346        -0.2346         0.4691
       -14.8783         0.4715         0.0482         0.2358        -0.2358         0.4715
       -14.8748         0.4738         0.0498         0.2369        -0.2369         0.4738
       -14.8714         0.4758         0.0514         0.2379        -0.2379         0.4758
       -14.8680         0.4778         0.0531         0.2389        -0.2389         0.4778
       -14.8645         0.4796         0.0547         0.2398        -0.2398         0.4796
       -14.8611         0.4813         0.0563         0.2406        -0.2406         0.4813
       -14.8577         0.4828         0.0580         0.2414        -0.2414         0.4828
       -14.8542         0.4843         0.0596         0.2421        -0.2421         0.4843
       -14.8508         0.4856         0.0613         0.2428        -0.2428         0.4856
       -14.8474         0.4868         0.0630         0.2434        -0.2434         0.4868
       -14.8439         0.4880         0.0646         0.2440        -0.2440         0.4880
       -14.8405         0.4890         0.0663         0.2445        -0.2445         0.4890
       -14.8371         0.4900         0.0680         0.2450        -0.2450         0.4900
       -14.8336         0.4909         0.0697         0.2454        -0.2454         0.4909
       -14.8302         0.4917         0.0714         0.2458        -0.2458         0.4917
       -14.8267         0.4924         0.0730         0.2462        -0.2462         0.4924
       -14.8233         0.4931         0.0747         0.2466        -0.2466         0.4931
       -14.8199         0.4937         0.0764         0.2469        -0.2469         0.4937
       -14.8164         0.4943         0.0781         0.2472        -0.2472         0.4943
       -14.8130         0.4949         0.0798         0.2474        -0.2474         0.4949
       -14.8096         0.4953         0.0815         0.2477        -0.2477         0.4953
       -14.8061         0.4958         0.0832         0.2479        -0.2479         0.4958
       -14.8027         0.4962         0.0849         0.2481        -0.2481         0.4962
       -14.7993         0.4966         0.0866         0.2483        -0.2483         0.4966
       -14.7958         0.4969         0.0883         0.2484        -0.2485         0.4969
       -14.7924         0.4972         0.0900         0.2486        -0.2486         0.4972
       -14.7890         0.4975         0.0917         0.2487        -0.2488         0.4975
       -14.7855         0.4978         0.0935         0.2489        -0.2489         0.4978
       -14.7821         0.4980         0.0952         0.2490        -0.2490         0.4980
       -14.7786         0.4983         0.0969         0.2491        -0.2491         0.4983
       -14.7752         0.4985         0.0986         0.2492        -0.2492         0.4985
       -14.7718         0.4987         0.1003         0.2493        -0.2493         0.4987
       -14.7683         0.4988         0.1020         0.2494        -0.2494         0.4988
       -14.7649         0.4990         0.1037         0.2495        -0.2495         0.4990
       -14.7615         0.4992         0.1054         0.2496        -0.2496         0.4992
       -14.7580         0.4993         0.1072         0.2497        -0.2497         0.4993
       -14.7546         0.4995         0.1089         0.2497        -0.2497         0.4995
       -14.7512         0.4996         0.1106         0.2498        -0.2498         0.4996
       -14.7477         0.4997         0.1123         0.2499        -0.2499         0.4997
       -14.7443         0.4999         0.1140         0.2499        -0.2499         0.4999
       -14.7409         0.5000         0.1157         0.2500        -0.2500         0.5000
       -14.7374         0.5001         0.1175         0.2500        -0.2501         0.5001
       -14.7340         0.5002         0.1192         0.2501        -0.2501         0.5002
       -14.7306         0.5003         0.1209         0.2501        -0.2502         0.5003
       -14.7271         0.5004         0.1226         0.2502        -0.2502         0.5004
       -14.7237         0.5005         0.1243         0.2503        -0.2503         0.5005
       -14.7202         0.5006         0.1260         0.2503        -0.2503         0.5006
       -14.7168         0.5007         0.1278         0.2504        -0.2504         0.5007
       -14.7134         0.5008         0.1295         0.2504        -0.2504         0.5008
       -14.7099         0.5009         0.1312         0.2504        -0.2505         0.5009
       -14.7065         0.5010         0.1329         0.2505        -0.2505         0.5010
       -14.7031         0.5011         0.1346         0.2505        -0.2506         0.5011
       -14.6996         0.5012         0.1364         0.2506        -0.2506         0.5012
       -14.6962         0.5013         0.1381         0.2506        -0.2507         0.5013
       -14.6928         0.5014         0.1398         0.2507        -0.2507         0.5014
       -14.6893         0.5015         0.1415         0.2507        -0.2507         0.5015
       -14.6859         0.5016         0.1433         0.2508        -0.2508         0.5016
       -14.6825         0.5017         0.1450         0.2508        -0.2508         0.5017
       -14.6790         0.5017         0.1467         0.2509        -0.2509         0.5017
       -14.6756         0.5018         0.1484         0.2509        -0.2509         0.5018
       -14.6721         0.5019         0.1502         0.2510        -0.2510         0.5019
       -14.6687         0.5020         0.1519         0.2510        -0.2510         0.5020
       -14.6653         0.5021         0.1536         0.2510        -0.2511         0.5021
       -14.6618         0.5022         0.1553         0.2511        -0.2511         0.5022
       -14.6584         0.5023         0.1571         0.2511        -0.2511         0.5023
       -14.6550         0.5023         0.1588         0.2512        -0.2512         0.5023
       -14.6515         0.5024         0.1605         0.2512        -0.2512         0.5024
       -14.6481         0.5025         0.1622         0.2512        -0.2513         0.5025
       -14.6447         0.5026         0.1640         0.2513        -0.2513         0.5026
       -14.6412         0.5027         0.1657         0.2513        -0.2513         0.5027
       -14.6378         0.5027         0.1674         0.2514        -0.2514         0.5027
       -14.6344         0.5028         0.1691         0.2514        -0.2514         0.5028
       -14.6309         0.5029         0.1709         0.2514        -0.2515         0.5029
       -14.6275         0.5030         0.1726         0.2515        -0.2515         0.5030
       -14.6240         0.5031         0.1743         0.2515        -0.2515         0.5031
       -14.6206         0.5032         0.1760         0.2516        -0.2516         0.5032
       -14.6172         0.5032         0.1778         0.2516        -0.2516         0.5032
       -14.6137         0.5033         0.1795         0.2517        -0.2517         0.5033
       -14.6103         0.5034         0.1812         0.2517        -0.2517         0.5034
       -14.6069         0.5035         0.1830         0.2517        -0.2518         0.5035
       -14.6034         0.5036         0.1847         0.2518        -0.2518         0.5036
       -14.6000         0.5037         0.1864         0.2518        -0.2518         0.5037
       -14.5966         0.5038         0.1882         0.2519        -0.2519         0.5038
       -14.5931         0.5039         0.1899         0.2519        -0.2519         0.5039
       -14.5897         0.5040         0.1916         0.2520        -0.2520         0.5040
       -14.5863         0.5041         0.1933         0.2520        -0.2520         0.5041
       -14.5828         0.5042         0.1951         0.2521        -0.2521         0.5042
       -14.5794         0.5043         0.1968         0.2521        -0.2521         0.5043
       -14.5759         0.5044         0.1985         0.2522        -0.2522         0.5044
       -14.5725         0.5045         0.2003         0.2522        -0.2522         0.5045
       -14.5691         0.5046         0.2020         0.2523        -0.2523         0.5046
       -14.5656         0.5047         0.2037         0.2523        -0.2523         0.5047
       -14.5622         0.5048         0.2055         0.2524        -0.2524         0.5048
       -14.5588         0.5049         0.2072         0.2524        -0.2524         0.5049
       -14.5553         0.5050         0.2089         0.2525        -0.2525         0.5050
       -14.5519         0.5051         0.2107         0.2525        -0.2525         0.5051
       -14.5485         0.5052         0.2124         0.2526        -0.2526         0.5052
       -14.5450         0.5052         0.2141         0.2526        -0.2526         0.5052
       -14.5416         0.5053         0.2159         0.2527        -0.2527         0.5053
       -14.5382         0.5054         0.2176         0.2527        -0.2527         0.5054
       -14.5347         0.5055         0.2194         0.2528        -0.2528         0.5055
       -14.5313         0.5056         0.2211         0.2528        -0.2528         0.5056
       -14.5279         0.5057         0.2228         0.2528        -0.2528         0.5057
       -14.5244         0.5057         0.2246         0.2529        -0.2529         0.5057
       -14.5210         0.5058         0.2263         0.2529        -0.2529         0.5058
       -14.5175         0.5059         0.2280         0.2529        -0.2529         0.5059
       -14.5141         0.5060         0.2298         0.2530        -0.2530         0.5060
       -14.5107         0.5060         0.2315         0.2530        -0.2530         0.5060
       -14.5072         0.5061         0.2333         0.2530        -0.2530         0.5061
       -14.5038         0.5062         0.2350         0.2531        -0.2531         0.5062
       -14.5004         0.5062         0.2367         0.2531        -0.2531         0.5062
       -14.4969         0.5063         0.2385         0.2531        -0.2531         0.5063
       -14.4935         0.5064         0.2402         0.2532        -0.2532         0.5064
       -14.4901         0.5064         0.2419         0.2532        -0.2532         0.5064
       -14.4866         0.5065         0.2437         0.2533        -0.2533         0.5065
       -14.4832         0.5066         0.2454         0.2533        -0.2533         0.5066
       -14.4798         0.5067         0.2472         0.2533        -0.2533         0.5067
       -14.4763         0.5068         0.2489         0.2534        -0.2534         0.5068
       -14.4729         0.5069         0.2507         0.2534        -0.2534         0.5069
       -14.4694         0.5070         0.2524         0.2535        -0.2535         0.5070
       -14.4660         0.5071         0.2541         0.2535        -0.2535         0.5071
       -14.4626         0.5072         0.2559         0.2536        -0.2536         0.5072
       -14.4591         0.5073         0.2576         0.2537        -0.2537         0.5073
       -14.4557         0.5075         0.2594         0.2537        -0.2537         0.5075
       -14.4523         0.5076         0.2611         0.2538        -0.2538         0.5076
       -14.4488         0.5077         0.2628         0.2539        -0.2539         0.5077
       -14.4454         0.5079         0.2646         0.2539        -0.2539         0.5079
       -14.4420         0.5080         0.2663         0.2540        -0.2540         0.5080
       -14.4385         0.5081         0.2681         0.2541        -0.2541         0.5081
       -14.4351         0.5083         0.2698         0.2542        -0.2541         0.5083
       -14.4317         0.5084         0.2716         0.2542        -0.2542         0.5084
       -14.4282         0.5086         0.2733         0.2543        -0.2543         0.5086
       -14.4248         0.5087         0.2751         0.2544        -0.2544         0.5087
       -14.4213         0.5089         0.2768         0.2544        -0.2544         0.5089
       -14.4179         0.5090         0.2786         0.2545        -0.2545         0.5090
       -14.4145         0.5091         0.2803         0.2546        -0.2546         0.5091
       -14.4110         0.5093         0.2821         0.2546        -0.2546         0.5093
       -14.4076         0.5094         0.2838         0.2547        -0.2547         0.5094
       -14.4042         0.5095         0.2856         0.2547        -0.2547         0.5095
       -14.4007         0.5096         0.2873         0.2548        -0.2548         0.5096
       -14.3973         0.5097         0.2891         0.2548        -0.2548         0.5097
       -14.3939         0.5097         0.2908         0.2549        -0.2549         0.5097
       -14.3904         0.5098         0.2926         0.2549        -0.2549         0.5098
       -14.3870         0.5099         0.2943         0.2549        -0.2549         0.5099
       -14.3836         0.5099         0.2961         0.2550        -0.2550         0.5099
       -14.3801         0.5100         0.2978         0.2550        -0.2550         0.5100
       -14.3767         0.5100         0.2996         0.2550        -0.2550         0.5100
       -14.3733         0.5100         0.3013         0.2550        -0.2550         0.5100
       -14.3698         0.5101         0.3031         0.2550        -0.2550         0.5101
       -14.3664         0.5101         0.3048         0.2550        -0.2550         0.5101
       -14.3629         0.5101         0.3066         0.2551        -0.2551         0.5101
       -14.3595         0.5101         0.3083         0.2551        -0.2551         0.5101
       -14.3561         0.5102         0.3101         0.2551        -0.2551         0.5102
       -14.3526         0.5102         0.3118         0.2551        -0.2551         0.5102
       -14.3492         0.5102         0.3136         0.2551        -0.2551         0.5102
       -14.3458         0.5103         0.3153         0.2552        -0.2551         0.5103
       -14.3423         0.5104         0.3171         0.2552        -0.2552         0.5104
       -14.3389         0.5104         0.3188         0.2552        -0.2552         0.5104
       -14.3355         0.5105         0.3206         0.2553        -0.2553         0.5105
       -14.3320         0.5106         0.3224         0.2553        -0.2553         0.5106
       -14.3286         0.5107         0.3241         0.2554        -0.2554         0.5107
       -14.3252         0.5109         0.3259         0.2554        -0.2554         0.5109
       -14.3217         0.5110         0.3276         0.2555        -0.2555         0.5110
       -14.3183         0.5112         0.3294         0.2556        -0.2556         0.5112
       -14.3148         0.5114         0.3311         0.2557        -0.2557         0.5114
       -14.3114         0.5115         0.3329         0.2558        -0.2558         0.5115
       -14.3080         0.5117         0.3346         0.2559        -0.2559         0.5117
       -14.3045         0.5120         0.3364         0.2560        -0.2560         0.5120
       -14.3011         0.5122         0.3382         0.2561        -0.2561         0.5122
       -14.2977         0.5124         0.3399         0.2562        -0.2562         0.5124
       -14.2942         0.5127         0.3417         0.2563        -0.2563         0.5127
       -14.2908         0.5129         0.3434         0.2565        -0.2565         0.5129
       -14.2874         0.5132         0.3452         0.2566        -0.2566         0.5132
       -14.2839         0.5134         0.3470         0.2567        -0.2567         0.5134
       -14.2805         0.5137         0.3487         0.2568        -0.2568         0.5137
       -14.2771         0.5139         0.3505         0.2569        -0.2569         0.5139
       -14.2736         0.5141         0.3523         0.2571        -0.2571         0.5141
       -14.2702         0.5143         0.3540         0.2572        -0.2572         0.5143
       -14.2667         0.5145         0.3558         0.2573        -0.2573         0.5145
       -14.2633         0.5147         0.3576         0.2573        -0.2573         0.5147
       -14.2599         0.5148         0.3593         0.2574        -0.2574         0.5148
