 #  energy  x  y  z  sp  sm
         0.0000         2.1996         1.7510         1.0000         1.9880         1.9880
         0.0013         2.1998         1.7511         1.0000         1.9882         1.9882
         0.0027         2.2000         1.7513         1.0000         1.9884         1.9884
         0.0040         2.2003         1.7515         1.0000         1.9886         1.9886
         0.0053         2.2005         1.7516         1.0000         1.9888         1.9888
         0.0067         2.2007         1.7518         1.0000         1.9890         1.9890
         0.0080         2.2009         1.7520         1.0000         1.9892         1.9892
         0.0093         2.2012         1.7521         1.0000         1.9894         1.9894
         0.0107         2.2014         1.7523         1.0000         1.9896         1.9896
         0.0120         2.2016         1.7525         1.0000         1.9897         1.9898
         0.0133         2.2018         1.7526         1.0000         1.9899         1.9900
         0.0147         2.2021         1.7528         1.0000         1.9901         1.9901
         0.0160         2.2023         1.7530         1.0000         1.9903         1.9903
         0.0173         2.2025         1.7531         1.0000         1.9905         1.9905
         0.0187         2.2027         1.7533         1.0000         1.9907         1.9907
         0.0200         2.2030         1.7535         1.0000         1.9909         1.9909
         0.0213         2.2032         1.7536         1.0000         1.9911         1.9911
         0.0227         2.2034         1.7538         1.0000         1.9913         1.9913
         0.0240         2.2036         1.7540         1.0000         1.9915         1.9915
         0.0253         2.2039         1.7541         1.0000         1.9917         1.9917
         0.0267         2.2041         1.7543         1.0000         1.9919         1.9919
         0.0280         2.2043         1.7545         1.0000         1.9921         1.9921
         0.0293         2.2045         1.7547         1.0000         1.9923         1.9923
         0.0307         2.2048         1.7548         1.0000         1.9925         1.9925
         0.0320         2.2050         1.7550         1.0000         1.9927         1.9927
         0.0333         2.2052         1.7552         1.0000         1.9929         1.9929
         0.0347         2.2054         1.7553         1.0000         1.9931         1.9931
         0.0360         2.2057         1.7555         1.0000         1.9933         1.9933
         0.0373         2.2059         1.7557         1.0000         1.9935         1.9935
         0.0387         2.2061         1.7558         1.0000         1.9937         1.9937
         0.0400         2.2063         1.7560         1.0000         1.9939         1.9939
         0.0413         2.2066         1.7562         1.0000         1.9941         1.9941
         0.0427         2.2068         1.7563         1.0000         1.9943         1.9943
         0.0440         2.2070         1.7565         1.0000         1.9945         1.9945
         0.0453         2.2073         1.7567         1.0000         1.9947         1.9947
         0.0467         2.2075         1.7569         1.0000         1.9949         1.9949
         0.0480         2.2077         1.7570         1.0000         1.9951         1.9951
         0.0493         2.2079         1.7572         1.0000         1.9953         1.9953
         0.0507         2.2082         1.7574         1.0000         1.9955         1.9955
         0.0520         2.2084         1.7575         1.0000         1.9957         1.9957
         0.0533         2.2086         1.7577         1.0000         1.9959         1.9959
         0.0547         2.2088         1.7579         1.0000         1.9961         1.9961
         0.0560         2.2091         1.7581         1.0000         1.9963         1.9963
         0.0573         2.2093         1.7582         1.0000         1.9965         1.9965
         0.0587         2.2095         1.7584         1.0000         1.9967         1.9967
         0.0600         2.2098         1.7586         1.0000         1.9969         1.9969
         0.0613         2.2100         1.7587         1.0000         1.9971         1.9971
         0.0627         2.2102         1.7589         1.0000         1.9973         1.9974
         0.0640         2.2104         1.7591         1.0000         1.9975         1.9976
         0.0653         2.2107         1.7593         1.0000         1.9978         1.9978
         0.0667         2.2109         1.7594         1.0000         1.9980         1.9980
         0.0680         2.2111         1.7596         1.0000         1.9982         1.9982
         0.0693         2.2114         1.7598         1.0000         1.9984         1.9984
         0.0707         2.2116         1.7599         1.0000         1.9986         1.9986
         0.0720         2.2118         1.7601         1.0000         1.9988         1.9988
         0.0733         2.2120         1.7603         1.0000         1.9990         1.9990
         0.0747         2.2123         1.7605         1.0000         1.9992         1.9992
         0.0760         2.2125         1.7606         1.0000         1.9994         1.9994
         0.0773         2.2127         1.7608         1.0000         1.9996         1.9996
         0.0787         2.2130         1.7610         1.0000         1.9998         1.9998
         0.0800         2.2132         1.7611         1.0000         2.0000         2.0000
         0.0813         2.2134         1.7613         1.0000         2.0002         2.0002
         0.0827         2.2136         1.7615         1.0000         2.0004         2.0004
         0.0840         2.2139         1.7617         1.0000         2.0006         2.0006
         0.0853         2.2141         1.7618         1.0000         2.0008         2.0008
         0.0867         2.2143         1.7620         1.0000         2.0010         2.0010
         0.0880         2.2146         1.7622         1.0000         2.0012         2.0012
         0.0893         2.2148         1.7624         1.0000         2.0014         2.0014
         0.0907         2.2150         1.7625         1.0000         2.0016         2.0016
         0.0920         2.2153         1.7627         1.0000         2.0018         2.0018
         0.0933         2.2155         1.7629         1.0000         2.0020         2.0020
         0.0947         2.2157         1.7631         1.0000         2.0022         2.0022
         0.0960         2.2160         1.7632         1.0000         2.0024         2.0024
         0.0973         2.2162         1.7634         1.0000         2.0026         2.0026
         0.0987         2.2164         1.7636         1.0000         2.0028         2.0028
         0.1000         2.2166         1.7638         1.0000         2.0030         2.0030
         0.1013         2.2169         1.7639         1.0000         2.0032         2.0032
         0.1027         2.2171         1.7641         1.0000         2.0034         2.0035
         0.1040         2.2173         1.7643         1.0000         2.0037         2.0037
         0.1053         2.2176         1.7644         1.0000         2.0039         2.0039
         0.1067         2.2178         1.7646         1.0000         2.0041         2.0041
         0.1080         2.2180         1.7648         1.0000         2.0043         2.0043
         0.1093         2.2183         1.7650         1.0000         2.0045         2.0045
         0.1107         2.2185         1.7651         1.0000         2.0047         2.0047
         0.1120         2.2187         1.7653         1.0000         2.0049         2.0049
         0.1133         2.2190         1.7655         1.0000         2.0051         2.0051
         0.1147         2.2192         1.7657         1.0000         2.0053         2.0053
         0.1160         2.2194         1.7658         1.0000         2.0055         2.0055
         0.1173         2.2197         1.7660         1.0000         2.0057         2.0057
         0.1187         2.2199         1.7662         1.0000         2.0059         2.0059
         0.1200         2.2201         1.7664         1.0000         2.0061         2.0061
         0.1213         2.2204         1.7665         1.0000         2.0063         2.0063
         0.1227         2.2206         1.7667         1.0000         2.0065         2.0065
         0.1240         2.2208         1.7669         1.0000         2.0067         2.0067
         0.1253         2.2211         1.7671         1.0000         2.0069         2.0069
         0.1267         2.2213         1.7673         1.0000         2.0072         2.0072
         0.1280         2.2215         1.7674         1.0000         2.0074         2.0074
         0.1293         2.2218         1.7676         1.0000         2.0076         2.0076
         0.1307         2.2220         1.7678         1.0000         2.0078         2.0078
         0.1320         2.2222         1.7680         1.0000         2.0080         2.0080
         0.1333         2.2225         1.7681         1.0000         2.0082         2.0082
         0.1347         2.2227         1.7683         1.0000         2.0084         2.0084
         0.1360         2.2229         1.7685         1.0000         2.0086         2.0086
         0.1373         2.2232         1.7687         1.0000         2.0088         2.0088
         0.1387         2.2234         1.7688         1.0000         2.0090         2.0090
         0.1400         2.2236         1.7690         1.0000         2.0092         2.0092
         0.1413         2.2239         1.7692         1.0000         2.0094         2.0094
         0.1427         2.2241         1.7694         1.0000         2.0096         2.0096
         0.1440         2.2243         1.7695         1.0000         2.0098         2.0099
         0.1453         2.2246         1.7697         1.0000         2.0101         2.0101
         0.1467         2.2248         1.7699         1.0000         2.0103         2.0103
         0.1480         2.2250         1.7701         1.0000         2.0105         2.0105
         0.1493         2.2253         1.7703         1.0000         2.0107         2.0107
         0.1507         2.2255         1.7704         1.0000         2.0109         2.0109
         0.1520         2.2258         1.7706         1.0000         2.0111         2.0111
         0.1533         2.2260         1.7708         1.0000         2.0113         2.0113
         0.1547         2.2262         1.7710         1.0000         2.0115         2.0115
         0.1560         2.2265         1.7711         1.0000         2.0117         2.0117
         0.1573         2.2267         1.7713         1.0000         2.0119         2.0119
         0.1587         2.2269         1.7715         1.0000         2.0121         2.0121
         0.1600         2.2272         1.7717         1.0000         2.0124         2.0124
         0.1613         2.2274         1.7719         1.0000         2.0126         2.0126
         0.1627         2.2276         1.7720         1.0000         2.0128         2.0128
         0.1640         2.2279         1.7722         1.0000         2.0130         2.0130
         0.1653         2.2281         1.7724         1.0000         2.0132         2.0132
         0.1667         2.2284         1.7726         1.0000         2.0134         2.0134
         0.1680         2.2286         1.7728         1.0000         2.0136         2.0136
         0.1693         2.2288         1.7729         1.0000         2.0138         2.0138
         0.1707         2.2291         1.7731         1.0000         2.0140         2.0140
         0.1720         2.2293         1.7733         1.0000         2.0142         2.0142
         0.1733         2.2295         1.7735         1.0000         2.0145         2.0145
         0.1747         2.2298         1.7736         1.0000         2.0147         2.0147
         0.1760         2.2300         1.7738         1.0000         2.0149         2.0149
         0.1773         2.2303         1.7740         1.0000         2.0151         2.0151
         0.1787         2.2305         1.7742         1.0000         2.0153         2.0153
         0.1800         2.2307         1.7744         1.0000         2.0155         2.0155
         0.1813         2.2310         1.7745         1.0000         2.0157         2.0157
         0.1827         2.2312         1.7747         1.0000         2.0159         2.0159
         0.1840         2.2314         1.7749         1.0000         2.0161         2.0161
         0.1853         2.2317         1.7751         1.0000         2.0164         2.0164
         0.1867         2.2319         1.7753         1.0000         2.0166         2.0166
         0.1880         2.2322         1.7754         1.0000         2.0168         2.0168
         0.1893         2.2324         1.7756         1.0000         2.0170         2.0170
         0.1907         2.2326         1.7758         1.0000         2.0172         2.0172
         0.1920         2.2329         1.7760         1.0000         2.0174         2.0174
         0.1933         2.2331         1.7762         1.0000         2.0176         2.0176
         0.1947         2.2334         1.7764         1.0000         2.0178         2.0178
         0.1960         2.2336         1.7765         1.0000         2.0180         2.0180
         0.1973         2.2338         1.7767         1.0000         2.0183         2.0183
         0.1987         2.2341         1.7769         1.0000         2.0185         2.0185
         0.2000         2.2343         1.7771         1.0000         2.0187         2.0187
         0.2013         2.2346         1.7773         1.0000         2.0189         2.0189
         0.2027         2.2348         1.7774         1.0000         2.0191         2.0191
         0.2040         2.2350         1.7776         1.0000         2.0193         2.0193
         0.2053         2.2353         1.7778         1.0000         2.0195         2.0195
         0.2067         2.2355         1.7780         1.0000         2.0197         2.0197
         0.2080         2.2358         1.7782         1.0000         2.0200         2.0200
         0.2093         2.2360         1.7784         1.0000         2.0202         2.0202
         0.2107         2.2362         1.7785         1.0000         2.0204         2.0204
         0.2120         2.2365         1.7787         1.0000         2.0206         2.0206
         0.2133         2.2367         1.7789         1.0000         2.0208         2.0208
         0.2147         2.2370         1.7791         1.0000         2.0210         2.0210
         0.2160         2.2372         1.7793         1.0000         2.0212         2.0212
         0.2173         2.2374         1.7794         1.0000         2.0215         2.0215
         0.2187         2.2377         1.7796         1.0000         2.0217         2.0217
         0.2200         2.2379         1.7798         1.0000         2.0219         2.0219
         0.2213         2.2382         1.7800         1.0000         2.0221         2.0221
         0.2227         2.2384         1.7802         1.0000         2.0223         2.0223
         0.2240         2.2387         1.7804         1.0000         2.0225         2.0225
         0.2253         2.2389         1.7805         1.0000         2.0227         2.0227
         0.2267         2.2391         1.7807         1.0000         2.0230         2.0230
         0.2280         2.2394         1.7809         1.0000         2.0232         2.0232
         0.2293         2.2396         1.7811         1.0000         2.0234         2.0234
         0.2307         2.2399         1.7813         1.0000         2.0236         2.0236
         0.2320         2.2401         1.7815         1.0000         2.0238         2.0238
         0.2333         2.2403         1.7816         1.0000         2.0240         2.0240
         0.2347         2.2406         1.7818         1.0000         2.0242         2.0242
         0.2360         2.2408         1.7820         1.0000         2.0245         2.0245
         0.2373         2.2411         1.7822         1.0000         2.0247         2.0247
         0.2387         2.2413         1.7824         1.0000         2.0249         2.0249
         0.2400         2.2416         1.7826         1.0000         2.0251         2.0251
         0.2413         2.2418         1.7827         1.0000         2.0253         2.0253
         0.2427         2.2420         1.7829         1.0000         2.0255         2.0255
         0.2440         2.2423         1.7831         1.0000         2.0258         2.0258
         0.2453         2.2425         1.7833         1.0000         2.0260         2.0260
         0.2467         2.2428         1.7835         1.0000         2.0262         2.0262
         0.2480         2.2430         1.7837         1.0000         2.0264         2.0264
         0.2493         2.2433         1.7839         1.0000         2.0266         2.0266
         0.2507         2.2435         1.7840         1.0000         2.0268         2.0268
         0.2520         2.2438         1.7842         1.0000         2.0271         2.0271
         0.2533         2.2440         1.7844         1.0000         2.0273         2.0273
         0.2547         2.2442         1.7846         1.0000         2.0275         2.0275
         0.2560         2.2445         1.7848         1.0000         2.0277         2.0277
         0.2573         2.2447         1.7850         1.0000         2.0279         2.0279
         0.2587         2.2450         1.7852         1.0000         2.0281         2.0281
         0.2600         2.2452         1.7853         1.0000         2.0284         2.0284
         0.2613         2.2455         1.7855         1.0000         2.0286         2.0286
         0.2627         2.2457         1.7857         1.0000         2.0288         2.0288
         0.2640         2.2460         1.7859         1.0000         2.0290         2.0290
         0.2653         2.2462         1.7861         1.0000         2.0292         2.0292
         0.2667         2.2465         1.7863         1.0000         2.0294         2.0295
         0.2680         2.2467         1.7865         1.0000         2.0297         2.0297
         0.2693         2.2469         1.7866         1.0000         2.0299         2.0299
         0.2707         2.2472         1.7868         1.0000         2.0301         2.0301
         0.2720         2.2474         1.7870         1.0000         2.0303         2.0303
         0.2733         2.2477         1.7872         1.0000         2.0305         2.0305
         0.2747         2.2479         1.7874         1.0000         2.0308         2.0308
         0.2760         2.2482         1.7876         1.0000         2.0310         2.0310
         0.2773         2.2484         1.7878         1.0000         2.0312         2.0312
         0.2787         2.2487         1.7880         1.0000         2.0314         2.0314
         0.2800         2.2489         1.7881         1.0000         2.0316         2.0316
         0.2813         2.2492         1.7883         1.0000         2.0319         2.0319
         0.2827         2.2494         1.7885         1.0000         2.0321         2.0321
         0.2840         2.2497         1.7887         1.0000         2.0323         2.0323
         0.2853         2.2499         1.7889         1.0000         2.0325         2.0325
         0.2867         2.2502         1.7891         1.0000         2.0327         2.0327
         0.2880         2.2504         1.7893         1.0000         2.0330         2.0330
         0.2893         2.2507         1.7895         1.0000         2.0332         2.0332
         0.2907         2.2509         1.7896         1.0000         2.0334         2.0334
