 #  energy  xx  yy  zz  xy  xz  yz
         0.0000         2.1996         1.7510         1.0000         0.0000         0.0000         0.0000
         0.0013         2.1998         1.7511         1.0000         0.0000         0.0000         0.0000
         0.0027         2.2000         1.7513         1.0000         0.0000         0.0000         0.0000
         0.0040         2.2003         1.7515         1.0000         0.0000         0.0000         0.0000
         0.0053         2.2005         1.7516         1.0000         0.0000         0.0000         0.0000
         0.0067         2.2007         1.7518         1.0000         0.0000         0.0000         0.0000
         0.0080         2.2009         1.7520         1.0000         0.0000         0.0000         0.0000
         0.0093         2.2012         1.7521         1.0000         0.0000         0.0000         0.0000
         0.0107         2.2014         1.7523         1.0000         0.0000         0.0000         0.0000
         0.0120         2.2016         1.7525         1.0000         0.0000         0.0000         0.0000
         0.0133         2.2018         1.7526         1.0000         0.0000         0.0000         0.0000
         0.0147         2.2021         1.7528         1.0000         0.0000         0.0000         0.0000
         0.0160         2.2023         1.7530         1.0000         0.0000         0.0000         0.0000
         0.0173         2.2025         1.7531         1.0000         0.0000         0.0000         0.0000
         0.0187         2.2027         1.7533         1.0000         0.0000         0.0000         0.0000
         0.0200         2.2030         1.7535         1.0000         0.0000         0.0000         0.0000
         0.0213         2.2032         1.7536         1.0000         0.0000         0.0000         0.0000
         0.0227         2.2034         1.7538         1.0000         0.0000         0.0000         0.0000
         0.0240         2.2036         1.7540         1.0000         0.0000         0.0000         0.0000
         0.0253         2.2039         1.7541         1.0000         0.0000         0.0000         0.0000
         0.0267         2.2041         1.7543         1.0000         0.0000         0.0000         0.0000
         0.0280         2.2043         1.7545         1.0000         0.0000         0.0000         0.0000
         0.0293         2.2045         1.7547         1.0000         0.0000         0.0000         0.0000
         0.0307         2.2048         1.7548         1.0000         0.0000         0.0000         0.0000
         0.0320         2.2050         1.7550         1.0000         0.0000         0.0000         0.0000
         0.0333         2.2052         1.7552         1.0000         0.0000         0.0000         0.0000
         0.0347         2.2054         1.7553         1.0000         0.0000         0.0000         0.0000
         0.0360         2.2057         1.7555         1.0000         0.0000         0.0000         0.0000
         0.0373         2.2059         1.7557         1.0000         0.0000         0.0000         0.0000
         0.0387         2.2061         1.7558         1.0000         0.0000         0.0000         0.0000
         0.0400         2.2063         1.7560         1.0000         0.0000         0.0000         0.0000
         0.0413         2.2066         1.7562         1.0000         0.0000         0.0000         0.0000
         0.0427         2.2068         1.7563         1.0000         0.0000         0.0000         0.0000
         0.0440         2.2070         1.7565         1.0000         0.0000         0.0000         0.0000
         0.0453         2.2073         1.7567         1.0000         0.0000         0.0000         0.0000
         0.0467         2.2075         1.7569         1.0000         0.0000         0.0000         0.0000
         0.0480         2.2077         1.7570         1.0000         0.0000         0.0000         0.0000
         0.0493         2.2079         1.7572         1.0000         0.0000         0.0000         0.0000
         0.0507         2.2082         1.7574         1.0000         0.0000         0.0000         0.0000
         0.0520         2.2084         1.7575         1.0000         0.0000         0.0000         0.0000
         0.0533         2.2086         1.7577         1.0000         0.0000         0.0000         0.0000
         0.0547         2.2088         1.7579         1.0000         0.0000         0.0000         0.0000
         0.0560         2.2091         1.7581         1.0000         0.0000         0.0000         0.0000
         0.0573         2.2093         1.7582         1.0000         0.0000         0.0000         0.0000
         0.0587         2.2095         1.7584         1.0000         0.0000         0.0000         0.0000
         0.0600         2.2098         1.7586         1.0000         0.0000         0.0000         0.0000
         0.0613         2.2100         1.7587         1.0000         0.0000         0.0000         0.0000
         0.0627         2.2102         1.7589         1.0000         0.0000         0.0000         0.0000
         0.0640         2.2104         1.7591         1.0000         0.0000         0.0000         0.0000
         0.0653         2.2107         1.7593         1.0000         0.0000         0.0000         0.0000
         0.0667         2.2109         1.7594         1.0000         0.0000         0.0000         0.0000
         0.0680         2.2111         1.7596         1.0000         0.0000         0.0000         0.0000
         0.0693         2.2114         1.7598         1.0000         0.0000         0.0000         0.0000
         0.0707         2.2116         1.7599         1.0000         0.0000         0.0000         0.0000
         0.0720         2.2118         1.7601         1.0000         0.0000         0.0000         0.0000
         0.0733         2.2120         1.7603         1.0000         0.0000         0.0000         0.0000
         0.0747         2.2123         1.7605         1.0000         0.0000         0.0000         0.0000
         0.0760         2.2125         1.7606         1.0000         0.0000         0.0000         0.0000
         0.0773         2.2127         1.7608         1.0000         0.0000         0.0000         0.0000
         0.0787         2.2130         1.7610         1.0000         0.0000         0.0000         0.0000
         0.0800         2.2132         1.7611         1.0000         0.0000         0.0000         0.0000
         0.0813         2.2134         1.7613         1.0000         0.0000         0.0000         0.0000
         0.0827         2.2136         1.7615         1.0000         0.0000         0.0000         0.0000
         0.0840         2.2139         1.7617         1.0000         0.0000         0.0000         0.0000
         0.0853         2.2141         1.7618         1.0000         0.0000         0.0000         0.0000
         0.0867         2.2143         1.7620         1.0000         0.0000         0.0000         0.0000
         0.0880         2.2146         1.7622         1.0000         0.0000         0.0000         0.0000
         0.0893         2.2148         1.7624         1.0000         0.0000         0.0000         0.0000
         0.0907         2.2150         1.7625         1.0000         0.0000         0.0000         0.0000
         0.0920         2.2153         1.7627         1.0000         0.0000         0.0000         0.0000
         0.0933         2.2155         1.7629         1.0000         0.0000         0.0000         0.0000
         0.0947         2.2157         1.7631         1.0000         0.0000         0.0000         0.0000
         0.0960         2.2160         1.7632         1.0000         0.0000         0.0000         0.0000
         0.0973         2.2162         1.7634         1.0000         0.0000         0.0000         0.0000
         0.0987         2.2164         1.7636         1.0000         0.0000         0.0000         0.0000
         0.1000         2.2166         1.7638         1.0000         0.0000         0.0000         0.0000
         0.1013         2.2169         1.7639         1.0000         0.0000         0.0000         0.0000
         0.1027         2.2171         1.7641         1.0000         0.0000         0.0000         0.0000
         0.1040         2.2173         1.7643         1.0000         0.0000         0.0000         0.0000
         0.1053         2.2176         1.7644         1.0000         0.0000         0.0000         0.0000
         0.1067         2.2178         1.7646         1.0000         0.0000         0.0000         0.0000
         0.1080         2.2180         1.7648         1.0000         0.0000         0.0000         0.0000
         0.1093         2.2183         1.7650         1.0000         0.0000         0.0000         0.0000
         0.1107         2.2185         1.7651         1.0000         0.0000         0.0000         0.0000
         0.1120         2.2187         1.7653         1.0000         0.0000         0.0000         0.0000
         0.1133         2.2190         1.7655         1.0000         0.0000         0.0000         0.0000
         0.1147         2.2192         1.7657         1.0000         0.0000         0.0000         0.0000
         0.1160         2.2194         1.7658         1.0000         0.0000         0.0000         0.0000
         0.1173         2.2197         1.7660         1.0000         0.0000         0.0000         0.0000
         0.1187         2.2199         1.7662         1.0000         0.0000         0.0000         0.0000
         0.1200         2.2201         1.7664         1.0000         0.0000         0.0000         0.0000
         0.1213         2.2204         1.7665         1.0000         0.0000         0.0000         0.0000
         0.1227         2.2206         1.7667         1.0000         0.0000         0.0000         0.0000
         0.1240         2.2208         1.7669         1.0000         0.0000         0.0000         0.0000
         0.1253         2.2211         1.7671         1.0000         0.0000         0.0000         0.0000
         0.1267         2.2213         1.7673         1.0000         0.0000         0.0000         0.0000
         0.1280         2.2215         1.7674         1.0000         0.0000         0.0000         0.0000
         0.1293         2.2218         1.7676         1.0000         0.0000         0.0000         0.0000
         0.1307         2.2220         1.7678         1.0000         0.0000         0.0000         0.0000
         0.1320         2.2222         1.7680         1.0000         0.0000         0.0000         0.0000
         0.1333         2.2225         1.7681         1.0000         0.0000         0.0000         0.0000
         0.1347         2.2227         1.7683         1.0000         0.0000         0.0000         0.0000
         0.1360         2.2229         1.7685         1.0000         0.0000         0.0000         0.0000
         0.1373         2.2232         1.7687         1.0000         0.0000         0.0000         0.0000
         0.1387         2.2234         1.7688         1.0000         0.0000         0.0000         0.0000
         0.1400         2.2236         1.7690         1.0000         0.0000         0.0000         0.0000
         0.1413         2.2239         1.7692         1.0000         0.0000         0.0000         0.0000
         0.1427         2.2241         1.7694         1.0000         0.0000         0.0000         0.0000
         0.1440         2.2243         1.7695         1.0000         0.0000         0.0000         0.0000
         0.1453         2.2246         1.7697         1.0000         0.0000         0.0000         0.0000
         0.1467         2.2248         1.7699         1.0000         0.0000         0.0000         0.0000
         0.1480         2.2250         1.7701         1.0000         0.0000         0.0000         0.0000
         0.1493         2.2253         1.7703         1.0000         0.0000         0.0000         0.0000
         0.1507         2.2255         1.7704         1.0000         0.0000         0.0000         0.0000
         0.1520         2.2258         1.7706         1.0000         0.0000         0.0000         0.0000
         0.1533         2.2260         1.7708         1.0000         0.0000         0.0000         0.0000
         0.1547         2.2262         1.7710         1.0000         0.0000         0.0000         0.0000
         0.1560         2.2265         1.7711         1.0000         0.0000         0.0000         0.0000
         0.1573         2.2267         1.7713         1.0000         0.0000         0.0000         0.0000
         0.1587         2.2269         1.7715         1.0000         0.0000         0.0000         0.0000
         0.1600         2.2272         1.7717         1.0000         0.0000         0.0000         0.0000
         0.1613         2.2274         1.7719         1.0000         0.0000         0.0000         0.0000
         0.1627         2.2276         1.7720         1.0000         0.0000         0.0000         0.0000
         0.1640         2.2279         1.7722         1.0000         0.0000         0.0000         0.0000
         0.1653         2.2281         1.7724         1.0000         0.0000         0.0000         0.0000
         0.1667         2.2284         1.7726         1.0000         0.0000         0.0000         0.0000
         0.1680         2.2286         1.7728         1.0000         0.0000         0.0000         0.0000
         0.1693         2.2288         1.7729         1.0000         0.0000         0.0000         0.0000
         0.1707         2.2291         1.7731         1.0000         0.0000         0.0000         0.0000
         0.1720         2.2293         1.7733         1.0000         0.0000         0.0000         0.0000
         0.1733         2.2295         1.7735         1.0000         0.0000         0.0000         0.0000
         0.1747         2.2298         1.7736         1.0000         0.0000         0.0000         0.0000
         0.1760         2.2300         1.7738         1.0000         0.0000         0.0000         0.0000
         0.1773         2.2303         1.7740         1.0000         0.0000         0.0000         0.0000
         0.1787         2.2305         1.7742         1.0000         0.0000         0.0000         0.0000
         0.1800         2.2307         1.7744         1.0000         0.0000         0.0000         0.0000
         0.1813         2.2310         1.7745         1.0000         0.0000         0.0000         0.0000
         0.1827         2.2312         1.7747         1.0000         0.0000         0.0000         0.0000
         0.1840         2.2314         1.7749         1.0000         0.0000         0.0000         0.0000
         0.1853         2.2317         1.7751         1.0000         0.0000         0.0000         0.0000
         0.1867         2.2319         1.7753         1.0000         0.0000         0.0000         0.0000
         0.1880         2.2322         1.7754         1.0000         0.0000         0.0000         0.0000
         0.1893         2.2324         1.7756         1.0000         0.0000         0.0000         0.0000
         0.1907         2.2326         1.7758         1.0000         0.0000         0.0000         0.0000
         0.1920         2.2329         1.7760         1.0000         0.0000         0.0000         0.0000
         0.1933         2.2331         1.7762         1.0000         0.0000         0.0000         0.0000
         0.1947         2.2334         1.7764         1.0000         0.0000         0.0000         0.0000
         0.1960         2.2336         1.7765         1.0000         0.0000         0.0000         0.0000
         0.1973         2.2338         1.7767         1.0000         0.0000         0.0000         0.0000
         0.1987         2.2341         1.7769         1.0000         0.0000         0.0000         0.0000
         0.2000         2.2343         1.7771         1.0000         0.0000         0.0000         0.0000
         0.2013         2.2346         1.7773         1.0000         0.0000         0.0000         0.0000
         0.2027         2.2348         1.7774         1.0000         0.0000         0.0000         0.0000
         0.2040         2.2350         1.7776         1.0000         0.0000         0.0000         0.0000
         0.2053         2.2353         1.7778         1.0000         0.0000         0.0000         0.0000
         0.2067         2.2355         1.7780         1.0000         0.0000         0.0000         0.0000
         0.2080         2.2358         1.7782         1.0000         0.0000         0.0000         0.0000
         0.2093         2.2360         1.7784         1.0000         0.0000         0.0000         0.0000
         0.2107         2.2362         1.7785         1.0000         0.0000         0.0000         0.0000
         0.2120         2.2365         1.7787         1.0000         0.0000         0.0000         0.0000
         0.2133         2.2367         1.7789         1.0000         0.0000         0.0000         0.0000
         0.2147         2.2370         1.7791         1.0000         0.0000         0.0000         0.0000
         0.2160         2.2372         1.7793         1.0000         0.0000         0.0000         0.0000
         0.2173         2.2374         1.7794         1.0000         0.0000         0.0000         0.0000
         0.2187         2.2377         1.7796         1.0000         0.0000         0.0000         0.0000
         0.2200         2.2379         1.7798         1.0000         0.0000         0.0000         0.0000
         0.2213         2.2382         1.7800         1.0000         0.0000         0.0000         0.0000
         0.2227         2.2384         1.7802         1.0000         0.0000         0.0000         0.0000
         0.2240         2.2387         1.7804         1.0000         0.0000         0.0000         0.0000
         0.2253         2.2389         1.7805         1.0000         0.0000         0.0000         0.0000
         0.2267         2.2391         1.7807         1.0000         0.0000         0.0000         0.0000
         0.2280         2.2394         1.7809         1.0000         0.0000         0.0000         0.0000
         0.2293         2.2396         1.7811         1.0000         0.0000         0.0000         0.0000
         0.2307         2.2399         1.7813         1.0000         0.0000         0.0000         0.0000
         0.2320         2.2401         1.7815         1.0000         0.0000         0.0000         0.0000
         0.2333         2.2403         1.7816         1.0000         0.0000         0.0000         0.0000
         0.2347         2.2406         1.7818         1.0000         0.0000         0.0000         0.0000
         0.2360         2.2408         1.7820         1.0000         0.0000         0.0000         0.0000
         0.2373         2.2411         1.7822         1.0000         0.0000         0.0000         0.0000
         0.2387         2.2413         1.7824         1.0000         0.0000         0.0000         0.0000
         0.2400         2.2416         1.7826         1.0000         0.0000         0.0000         0.0000
         0.2413         2.2418         1.7827         1.0000         0.0000         0.0000         0.0000
         0.2427         2.2420         1.7829         1.0000         0.0000         0.0000         0.0000
         0.2440         2.2423         1.7831         1.0000         0.0000         0.0000         0.0000
         0.2453         2.2425         1.7833         1.0000         0.0000         0.0000         0.0000
         0.2467         2.2428         1.7835         1.0000         0.0000         0.0000         0.0000
         0.2480         2.2430         1.7837         1.0000         0.0000         0.0000         0.0000
         0.2493         2.2433         1.7839         1.0000         0.0000         0.0000         0.0000
