    2    2    1    1
  0.9013366E+02  0.3606893E-09  0.3606893E-09  0.1600000E-08  0.1000000E-16
  1.000000000000000E-004
  CAR 
 unknown system                          
     10     21     16
 
  0.0000000E+00  0.0000000E+00  0.0000000E+00  0.5917160E-02
      1        -16.474789   1.000000
      2        -10.187035   1.000000
      3         -3.562809   1.000000
      4         -3.013838   1.000000
      5         -3.013837   1.000000
      6         -1.091752   0.000000
      7          0.477176   0.000000
      8          0.477177   0.000000
      9          1.903355   0.000000
     10          1.996470   0.000000
     11          3.376016   0.000000
     12          4.304046   0.000000
     13          5.864326   0.000000
     14          6.885372   0.000000
     15          7.069121   0.000000
     16          7.069121   0.000000
 
  0.7692308E-01  0.1387779E-16  0.0000000E+00  0.3550296E-01
      1        -16.396399   1.000000
      2        -10.176549   1.000000
      3         -3.804075   1.000000
      4         -3.524875   1.000000
      5         -3.191063   1.000000
      6         -0.507755   0.000000
      7          0.355455   0.000000
      8          0.658115   0.000000
      9          2.015811   0.000000
     10          2.092377   0.000000
     11          3.461965   0.000000
     12          4.397570   0.000000
     13          6.039062   0.000000
     14          6.241409   0.000000
     15          6.992283   0.000000
     16          7.426781   0.000000
 
  0.1538462E+00  0.1387779E-16  0.0000000E+00  0.3550296E-01
      1        -16.163152   1.000000
      2        -10.179009   1.000000
      3         -5.025250   1.000000
      4         -3.598755   1.000000
      5         -3.437738   1.000000
      6         -0.674332   0.000000
      7          0.924662   0.000000
      8          1.035285   0.000000
      9          2.287461   0.000000
     10          2.404212   0.000000
     11          3.677598   0.000000
     12          4.643397   0.000000
     13          5.318698   0.000000
     14          6.481427   0.000000
     15          7.019885   0.000000
     16          7.231037   0.000000
 
  0.2307692E+00 -0.1387779E-16  0.0000000E+00  0.3550296E-01
      1        -15.782033   1.000000
      2        -10.308187   1.000000
      3         -6.027871   1.000000
      4         -4.051451   1.000000
      5         -3.408785   1.000000
      6         -1.198093   0.000000
      7          1.310556   0.000000
      8          1.346503   0.000000
      9          2.596507   0.000000
     10          2.858491   0.000000
     11          4.027484   0.000000
     12          4.895504   0.000000
     13          5.460502   0.000000
     14          6.149794   0.000000
     15          7.464482   0.000000
     16          7.531861   0.000000
 
  0.3076923E+00  0.2775558E-16  0.0000000E+00  0.3550296E-01
      1        -15.269926   1.000000
      2        -10.719374   1.000000
      3         -6.557853   1.000000
      4         -4.442615   1.000000
      5         -3.630677   1.000000
      6         -1.417102   0.000000
      7          0.988844   0.000000
      8          1.485818   0.000000
      9          3.129903   0.000000
     10          3.343331   0.000000
     11          4.286154   0.000000
     12          5.366519   0.000000
     13          5.657710   0.000000
     14          6.899175   0.000000
     15          7.404989   0.000000
     16          8.404434   0.000000
 
  0.3846154E+00  0.0000000E+00  0.0000000E+00  0.3550296E-01
      1        -14.671861   1.000000
      2        -11.390414   1.000000
      3         -6.605670   1.000000
      4         -4.721897   1.000000
      5         -4.098207   1.000000
      6         -1.289204   0.000000
      7          0.497776   0.000000
      8          1.506253   0.000000
      9          3.502734   0.000000
     10          3.909774   0.000000
     11          4.572171   0.000000
     12          5.795490   0.000000
     13          6.379506   0.000000
     14          6.894581   0.000000
     15          7.397169   0.000000
     16          7.966908   0.000000
 
  0.4615385E+00 -0.2775558E-16  0.0000000E+00  0.3550296E-01
      1        -14.146228   1.000000
      2        -12.009060   1.000000
      3         -6.446381   1.000000
      4         -4.866190   1.000000
      5         -4.510678   1.000000
      6         -1.084481   0.000000
      7          0.172288   0.000000
      8          1.492754   0.000000
      9          3.301964   0.000000
     10          4.855477   0.000000
     11          5.299030   0.000000
     12          5.906180   0.000000
     13          6.230365   0.000000
     14          6.721844   0.000000
     15          7.318936   0.000000
     16          7.371133   0.000000
 
  0.7692308E-01  0.7692308E-01  0.0000000E+00  0.3550296E-01
      1        -16.240541   1.000000
      2        -10.171888   1.000000
      3         -4.661322   1.000000
      4         -3.588824   1.000000
      5         -3.455299   1.000000
      6         -0.006705   0.000000
      7          0.033314   0.000000
      8          1.144884   0.000000
      9          2.242473   0.000000
     10          2.268329   0.000000
     11          3.602446   0.000000
     12          4.577213   0.000000
     13          5.446206   0.000000
     14          6.660212   0.000000
     15          6.671391   0.000000
     16          7.377845   0.000000
 
  0.1538462E+00  0.7692308E-01  0.0000000E+00  0.7100592E-01
      1        -15.932960   1.000000
      2        -10.233696   1.000000
      3         -5.629691   1.000000
      4         -4.168451   1.000000
      5         -3.382802   1.000000
      6         -0.534853   0.000000
      7          0.641717   0.000000
      8          1.562145   0.000000
      9          2.529437   0.000000
     10          2.658273   0.000000
     11          3.829358   0.000000
     12          4.843491   0.000000
     13          5.107480   0.000000
     14          6.446884   0.000000
     15          7.242878   0.000000
     16          7.340702   0.000000
 
  0.2307692E+00  0.7692308E-01  0.0000000E+00  0.7100592E-01
      1        -15.484451   1.000000
      2        -10.503449   1.000000
      3         -6.326771   1.000000
      4         -4.681948   1.000000
      5         -3.439672   1.000000
      6         -0.947283   0.000000
      7          1.047653   0.000000
      8          1.411508   0.000000
      9          2.910161   0.000000
     10          3.161303   0.000000
     11          4.183140   0.000000
     12          5.147400   0.000000
     13          5.513141   0.000000
     14          6.249554   0.000000
     15          7.549350   0.000000
     16          8.034883   0.000000
 
  0.3076923E+00  0.7692308E-01  0.0000000E+00  0.7100592E-01
      1        -14.921241   1.000000
      2        -11.065959   1.000000
      3         -6.579608   1.000000
      4         -5.037017   1.000000
      5         -3.772816   1.000000
      6         -1.003528   0.000000
      7          0.864929   0.000000
      8          1.215624   0.000000
      9          3.565510   0.000000
     10          3.629826   0.000000
     11          4.421069   0.000000
     12          5.623136   0.000000
     13          6.038143   0.000000
     14          6.706377   0.000000
     15          7.624744   0.000000
     16          8.036095   0.000000
 
  0.3846154E+00  0.7692308E-01  0.0000000E+00  0.7100592E-01
      1        -14.322786   1.000000
      2        -11.759189   1.000000
      3         -6.523397   1.000000
      4         -5.177830   1.000000
      5         -4.272000   1.000000
      6         -0.774290   0.000000
      7          0.332880   0.000000
      8          1.291555   0.000000
      9          3.521212   0.000000
     10          4.449178   0.000000
     11          4.982790   0.000000
     12          6.104583   0.000000
     13          6.665995   0.000000
     14          6.860092   0.000000
     15          6.969557   0.000000
     16          7.652802   0.000000
 
  0.4615385E+00  0.7692308E-01  0.0000000E+00  0.3550296E-01
      1        -13.990848   1.000000
      2        -12.140513   1.000000
      3         -6.453700   1.000000
      4         -5.146020   1.000000
      5         -4.570661   1.000000
      6         -0.566224   0.000000
      7          0.045314   0.000000
      8          1.325179   0.000000
      9          3.361784   0.000000
     10          5.432421   0.000000
     11          5.472430   0.000000
     12          5.781001   0.000000
     13          6.082604   0.000000
     14          6.740072   0.000000
     15          7.206929   0.000000
     16          7.930119   0.000000
 
  0.1538462E+00  0.1538462E+00  0.0000000E+00  0.3550296E-01
      1        -15.556779   1.000000
      2        -10.431581   1.000000
      3         -6.111555   1.000000
      4         -4.997213   1.000000
      5         -3.381640   1.000000
      6         -0.259763   0.000000
      7          0.464173   0.000000
      8          1.694372   0.000000
      9          2.943371   0.000000
     10          2.996782   0.000000
     11          3.957595   0.000000
     12          5.021567   0.000000
     13          5.317668   0.000000
     14          6.360483   0.000000
     15          7.469204   0.000000
     16          7.892520   0.000000
 
  0.2307692E+00  0.1538462E+00  0.0000000E+00  0.7100592E-01
      1        -15.050382   1.000000
      2        -10.870049   1.000000
      3         -6.362627   1.000000
      4         -5.620104   1.000000
      5         -3.566774   1.000000
      6         -0.343874   0.000000
      7          0.525052   0.000000
      8          1.547267   0.000000
      9          3.442710   0.000000
     10          3.579626   0.000000
     11          4.325181   0.000000
     12          5.439797   0.000000
     13          5.903692   0.000000
     14          5.942144   0.000000
     15          7.501390   0.000000
     16          8.431890   0.000000
 
  0.3076923E+00  0.1538462E+00  0.0000000E+00  0.7100592E-01
      1        -14.453981   1.000000
      2        -11.512160   1.000000
      3         -6.526800   1.000000
      4         -5.765388   1.000000
      5         -3.990003   1.000000
      6         -0.347221   0.000000
      7          0.485793   0.000000
      8          1.315078   0.000000
      9          3.920029   0.000000
     10          4.219318   0.000000
     11          4.799969   0.000000
     12          5.995591   0.000000
     13          6.099905   0.000000
     14          6.743520   0.000000
     15          7.392867   0.000000
     16          7.692248   0.000000
 
  0.3846154E+00  0.1538462E+00  0.0000000E+00  0.7100592E-01
      1        -13.912396   1.000000
      2        -12.115141   1.000000
      3         -6.672301   1.000000
      4         -5.519837   1.000000
      5         -4.471553   1.000000
      6         -0.283827   0.000000
      7          0.451023   0.000000
      8          1.173061   0.000000
      9          3.743427   0.000000
     10          5.172020   0.000000
     11          5.575865   0.000000
     12          6.179117   0.000000
     13          6.396951   0.000000
     14          6.612219   0.000000
     15          7.269007   0.000000
     16          7.671536   0.000000
 
  0.2307692E+00  0.2307692E+00  0.0000000E+00  0.3550296E-01
      1        -14.501539   1.000000
      2        -11.406962   1.000000
      3         -6.436685   1.000000
      4         -6.107085   1.000000
      5         -3.867343   1.000000
      6         -0.141720   0.000000
      7          0.230429   0.000000
      8          1.812476   0.000000
      9          4.090014   0.000000
     10          4.171249   0.000000
     11          4.769877   0.000000
     12          5.513292   0.000000
     13          5.811279   0.000000
     14          6.644718   0.000000
     15          7.038738   0.000000
     16          8.581004   0.000000
 
  0.3076923E+00  0.2307692E+00  0.0000000E+00  0.7100592E-01
      1        -13.895299   1.000000
      2        -12.032530   1.000000
      3         -6.928410   1.000000
      4         -5.703765   1.000000
      5         -4.316610   1.000000
      6         -0.568837   0.000000
      7          0.744225   0.000000
      8          1.701385   0.000000
      9          4.490646   0.000000
     10          5.004846   0.000000
     11          5.306914   0.000000
     12          5.730329   0.000000
     13          6.167969   0.000000
     14          7.208707   0.000000
     15          7.415572   0.000000
     16          7.546032   0.000000
 
  0.3846154E+00  0.2307692E+00  0.0000000E+00  0.3550296E-01
      1        -13.511846   1.000000
      2        -12.428404   1.000000
      3         -7.096926   1.000000
      4         -5.388423   1.000000
      5         -4.647274   1.000000
      6         -0.721219   0.000000
      7          1.231741   0.000000
      8          1.328240   0.000000
      9          4.436635   0.000000
     10          5.447192   0.000000
     11          6.046436   0.000000
     12          6.096626   0.000000
     13          6.219140   0.000000
     14          6.893009   0.000000
     15          7.139153   0.000000
     16          7.948084   0.000000
 
  0.3076923E+00  0.3076923E+00  0.0000000E+00  0.3550296E-01
      1        -13.299390   1.000000
      2        -12.597766   1.000000
      3         -7.291966   1.000000
      4         -5.269343   1.000000
      5         -4.726269   1.000000
      6         -0.937046   0.000000
      7          1.282413   0.000000
      8          1.696570   0.000000
      9          5.131958   0.000000
     10          5.543528   0.000000
     11          5.625105   0.000000
     12          6.163075   0.000000
     13          6.680374   0.000000
     14          7.009606   0.000000
     15          7.236485   0.000000
     16          7.382159   0.000000
