 #k-path energy <sx> <sy> <sz> orbital
 #band           1
 0.00000000E+00   -12.77362172      -0.269262      -0.397116      -0.628077       1.000000
 0.16750419E-02   -12.77352037      -0.273625      -0.396000      -0.624950       1.000000
 0.33500838E-02   -12.77321635      -0.286748      -0.391252      -0.617210       1.000000
 0.50251256E-02   -12.77270977      -0.306779      -0.383049      -0.605172       1.000000
 0.67001675E-02   -12.77200078      -0.331201      -0.371791      -0.589447       1.000000
 0.83752094E-02   -12.77108960      -0.357451      -0.358116      -0.570981       1.000000
 0.10050251E-01   -12.76997653      -0.383426      -0.342809      -0.550921       1.000000
 0.11725293E-01   -12.76866187      -0.407721      -0.326645      -0.530405       1.000000
 0.13400335E-01   -12.76714600      -0.429617      -0.310257      -0.510361       1.000000
 0.15075377E-01   -12.76542933      -0.448917      -0.294067      -0.491422       1.000000
 0.16750419E-01   -12.76351228      -0.465753      -0.278288      -0.473924       1.000000
 0.18425461E-01   -12.76139532      -0.480428      -0.262958      -0.457962       1.000000
 0.20100503E-01   -12.75907890      -0.493307      -0.247982      -0.443454       1.000000
 0.21775544E-01   -12.75656351      -0.504762      -0.233167      -0.430198       1.000000
 0.23450586E-01   -12.75384961      -0.515143      -0.218243      -0.417904       1.000000
 0.25125628E-01   -12.75093767      -0.524769      -0.202870      -0.406212       1.000000
 0.26800670E-01   -12.74782812      -0.533932      -0.186622      -0.394686       1.000000
 0.28475712E-01   -12.74452138      -0.542893      -0.168966      -0.382781       1.000000
 0.30150754E-01   -12.74101783      -0.551890      -0.149204      -0.369797       1.000000
 0.31825796E-01   -12.73731782      -0.561116      -0.126394      -0.354773       1.000000
 0.33500838E-01   -12.73342166      -0.570683      -0.099212      -0.336325       1.000000
 0.35175879E-01   -12.72932961      -0.580492      -0.065741      -0.312352       1.000000
 0.36850921E-01   -12.72504186      -0.589937      -0.023138      -0.279533       1.000000
 0.38525963E-01   -12.72055861      -0.597135       0.032777      -0.232466       1.000000
 0.40201005E-01   -12.71587996      -0.597106       0.107681      -0.162507       1.000000
 0.41876047E-01   -12.71100606      -0.578046       0.206939      -0.057535       1.000000
 0.43551089E-01   -12.70593698      -0.517803       0.327144       0.091484       1.000000
 0.45226131E-01   -12.70067278      -0.396000       0.440765       0.268685       1.000000
 0.46901173E-01   -12.69521348      -0.231512       0.507021       0.424130       1.000000
 0.48576215E-01   -12.68955887      -0.076406       0.519292       0.524053       1.000000
 0.50251256E-01   -12.68370870       0.041022       0.502177       0.577841       1.000000
 0.51926298E-01   -12.67766266       0.122567       0.476139       0.606387       1.000000
 0.53601340E-01   -12.67142045       0.178261       0.450000       0.623395       1.000000
 0.55276382E-01   -12.66498179       0.216539       0.426377       0.635709       1.000000
 0.56951424E-01   -12.65834647       0.243007       0.405594       0.646539       1.000000
 0.58626466E-01   -12.65151423       0.261186       0.387282       0.657413       1.000000
 0.60301508E-01   -12.64448487       0.273274       0.370919       0.669103       1.000000
 0.61976550E-01   -12.63725821       0.280642       0.355996       0.682048       1.000000
 0.63651591E-01   -12.62983409       0.284128       0.342049       0.696545       1.000000
 0.65326633E-01   -12.62221250       0.284202       0.328648       0.712854       1.000000
 0.67001675E-01   -12.61439339       0.281053       0.315366       0.731247       1.000000
 0.68676717E-01   -12.60637679       0.274622       0.301738       0.752042       1.000000
 0.70351759E-01   -12.59816283       0.264582       0.287212       0.775630       1.000000
 0.72026801E-01   -12.58975163       0.250276       0.271058       0.802482       1.000000
 0.73701843E-01   -12.58114356       0.230565       0.252240       0.833124       1.000000
 0.75376885E-01   -12.57233891       0.203574       0.229184       0.868002       1.000000
 0.77051926E-01   -12.56333813       0.166223       0.199375       0.907035       1.000000
 0.78726968E-01   -12.55414173       0.113504       0.158677       0.948251       1.000000
 0.80402010E-01   -12.54475030       0.037749       0.100464       0.983937       1.000000
 0.82077052E-01   -12.53516470      -0.070035       0.015943       0.991466       1.000000
 0.83752094E-01   -12.52538578      -0.209361      -0.098328       0.922591       1.000000
 0.85427136E-01   -12.51541458      -0.348050      -0.221123       0.731873       1.000000
 0.87102178E-01   -12.50525203      -0.437493      -0.311932       0.461591       1.000000
 0.88777220E-01   -12.49489885      -0.470895      -0.358413       0.209150       1.000000
 0.90452262E-01   -12.48435580      -0.472673      -0.376424       0.016762       1.000000
 0.92127303E-01   -12.47362362      -0.461939      -0.381268      -0.121600       1.000000
 0.93802345E-01   -12.46270310      -0.447389      -0.380874      -0.221696       1.000000
 0.95477387E-01   -12.45159516      -0.432305      -0.378718      -0.295964       1.000000
 0.97152429E-01   -12.44030062      -0.417806      -0.376274      -0.352573       1.000000
 0.98827471E-01   -12.42882052      -0.404213      -0.374169      -0.396699       1.000000
 0.10050251E+00   -12.41715568      -0.391565      -0.372670      -0.431639       1.000000
 0.10217755E+00   -12.40530702      -0.379820      -0.371888      -0.459530       1.000000
 0.10385260E+00   -12.39327537      -0.368919      -0.371865      -0.481785       1.000000
 0.10552764E+00   -12.38106151      -0.358817      -0.372612      -0.499350       1.000000
 0.10720268E+00   -12.36866645      -0.349482      -0.374124      -0.512868       1.000000
 0.10887772E+00   -12.35609058      -0.340901      -0.376388      -0.522774       1.000000
 0.11055276E+00   -12.34333498      -0.333077      -0.379382      -0.529363       1.000000
 0.11222781E+00   -12.33040013      -0.326019      -0.383078      -0.532832       1.000000
 0.11390285E+00   -12.31728670      -0.319747      -0.387439      -0.533314       1.000000
 0.11557789E+00   -12.30399521      -0.314281      -0.392414      -0.530893       1.000000
 0.11725293E+00   -12.29052624      -0.309642      -0.397940      -0.525630       1.000000
 0.11892797E+00   -12.27688019      -0.305848      -0.403941      -0.517572       1.000000
 0.12060302E+00   -12.26305759      -0.302909      -0.410323      -0.506766       1.000000
 0.12227806E+00   -12.24905876      -0.300826      -0.416976      -0.493272       1.000000
 0.12395310E+00   -12.23488416      -0.299589      -0.423777      -0.477173       1.000000
 0.12562814E+00   -12.22053391      -0.299175      -0.430588      -0.458583       1.000000
 0.12730318E+00   -12.20600872      -0.299547      -0.437264      -0.437654       1.000000
 0.12897822E+00   -12.19130867      -0.300653      -0.443659      -0.414585       1.000000
 0.13065327E+00   -12.17643412      -0.302432      -0.449626      -0.389617       1.000000
 0.13232831E+00   -12.16138543      -0.304809      -0.455034      -0.363039       1.000000
 0.13400335E+00   -12.14616286      -0.307705      -0.459763      -0.335172       1.000000
 0.13567839E+00   -12.13076680      -0.311034      -0.463720      -0.306369       1.000000
 0.13735343E+00   -12.11519756      -0.314713      -0.466838      -0.276995       1.000000
 0.13902848E+00   -12.09945561      -0.318658      -0.469079      -0.247415       1.000000
 0.14070352E+00   -12.08354131      -0.322794      -0.470434      -0.217982       1.000000
 0.14237856E+00   -12.06745506      -0.327052      -0.470920      -0.189024       1.000000
 0.14405360E+00   -12.05119760      -0.331375      -0.470580      -0.160829       1.000000
 0.14572864E+00   -12.03476948      -0.335714      -0.469472      -0.133646       1.000000
 0.14740369E+00   -12.01817123      -0.340029      -0.467667      -0.107673       1.000000
 0.14907873E+00   -12.00140367      -0.344292      -0.465245      -0.083066       1.000000
 0.15075377E+00   -11.98446748      -0.348481      -0.462288      -0.059935       1.000000
 0.15242881E+00   -11.96736362      -0.352581      -0.458877      -0.038351       1.000000
 0.15410385E+00   -11.95009293      -0.356584      -0.455089      -0.018351       1.000000
 0.15577889E+00   -11.93265645      -0.360488      -0.450993       0.000053       1.000000
 0.15745394E+00   -11.91505533      -0.364293      -0.446653       0.016870       1.000000
 0.15912898E+00   -11.89729045      -0.368004      -0.442124       0.032121       1.000000
 0.16080402E+00   -11.87936346      -0.371627      -0.437450       0.045836       1.000000
 0.16247906E+00   -11.86127555      -0.375175      -0.432671       0.058041       1.000000
 0.16415410E+00   -11.84302805      -0.378662      -0.427813       0.068755       1.000000
 0.16582915E+00   -11.82462245      -0.382105      -0.422898       0.077978       1.000000
 0.16750419E+00   -11.80606017      -0.385530      -0.417936       0.085681       1.000000
 0.16917923E+00   -11.78734300      -0.388971      -0.412927       0.091783       1.000000
 0.17085427E+00   -11.76847249      -0.392475      -0.407858       0.096119       1.000000
 0.17252931E+00   -11.74945038      -0.396115      -0.402695       0.098376       1.000000
 0.17420436E+00   -11.73027835      -0.400007      -0.397366       0.097966       1.000000
 0.17587940E+00   -11.71095819      -0.404356      -0.391724       0.093730       1.000000
 0.17755444E+00   -11.69149209      -0.409560      -0.385436       0.083162       1.000000
 0.17922948E+00   -11.67188176      -0.416513      -0.377576       0.059869       1.000000
 0.18090452E+00   -11.65212912      -0.427606      -0.364490       0.001960       1.000000
 0.18257956E+00   -11.63223652      -0.445778      -0.312005      -0.234163       1.000000
 0.18425461E+00   -11.61221248       0.221178       0.347391      -0.697749       1.000000
 0.18592965E+00   -11.59206258       0.375237       0.379421      -0.360267       1.000000
 0.18760469E+00   -11.57177903       0.399254       0.373599      -0.287294       1.000000
 0.18927973E+00   -11.55136325       0.409676       0.367862      -0.257451       1.000000
 0.19095477E+00   -11.53081710       0.416137       0.362569      -0.241628       1.000000
 0.19262982E+00   -11.51014222       0.420927       0.357543      -0.231959       1.000000
 0.19430486E+00   -11.48934118       0.424869       0.352659      -0.225468       1.000000
 0.19597990E+00   -11.46841567       0.428334       0.347832      -0.220785       1.000000
 0.19765494E+00   -11.44736776       0.431520       0.343000      -0.217204       1.000000
 0.19932998E+00   -11.42619940       0.434547       0.338108      -0.214322       1.000000
 0.20100503E+00   -11.40491293       0.437498       0.333106      -0.211901       1.000000
 0.20268007E+00   -11.38351041       0.440437       0.327938      -0.209790       1.000000
 0.20435511E+00   -11.36199404       0.443422       0.322541      -0.207894       1.000000
 0.20603015E+00   -11.34036602       0.446508       0.316837      -0.206149       1.000000
 0.20770519E+00   -11.31862885       0.449756       0.310730      -0.204517       1.000000
 0.20938023E+00   -11.29678461       0.453238       0.304092      -0.202970       1.000000
 0.21105528E+00   -11.27483608       0.457041       0.296750      -0.201495       1.000000
 0.21273032E+00   -11.25278597       0.461278       0.288462      -0.200087       1.000000
 0.21440536E+00   -11.23063632       0.466098       0.278877      -0.198743       1.000000
 0.21608040E+00   -11.20838998       0.471708       0.267469      -0.197466       1.000000
 0.21775544E+00   -11.18604912       0.478398       0.253402      -0.196251       1.000000
 0.21943049E+00   -11.16361763       0.486578       0.235278      -0.195079       1.000000
 0.22110553E+00   -11.14109781       0.496821       0.210587      -0.193861       1.000000
 0.22278057E+00   -11.11849263       0.509799       0.174401      -0.192272       1.000000
 0.22445561E+00   -11.09580509       0.525532       0.115948      -0.189132       1.000000
 0.22613065E+00   -11.07303882       0.537968       0.009113      -0.179578       1.000000
 0.22780570E+00   -11.05019805       0.500002      -0.202032      -0.141998       1.000000
 0.22948074E+00   -11.02728937       0.260951      -0.471804      -0.032432       1.000000
 0.23115578E+00   -11.00431758      -0.032318      -0.531149       0.070101       1.000000
 0.23283082E+00   -10.98128232      -0.180397      -0.494335       0.113326       1.000000
 0.23450586E+00   -10.95818409      -0.251244      -0.458138       0.130950       1.000000
 0.23618091E+00   -10.93502498      -0.290093      -0.431425       0.139018       1.000000
 0.23785595E+00   -10.91180796      -0.314004      -0.411722       0.142925       1.000000
 0.23953099E+00   -10.88853587      -0.329989      -0.396677       0.144740       1.000000
 0.24120603E+00   -10.86521176      -0.341321      -0.384770       0.145389       1.000000
 0.24288107E+00   -10.84183867      -0.349704      -0.375046       0.145338       1.000000
 0.24455611E+00   -10.81842001      -0.356103      -0.366894       0.144848       1.000000
 0.24623116E+00   -10.79495896      -0.361099      -0.359910       0.144081       1.000000
 0.24790620E+00   -10.77145885      -0.365064      -0.353817       0.143143       1.000000
 0.24958124E+00   -10.74792299      -0.368246      -0.348419       0.142117       1.000000
 0.25125628E+00   -10.72435460      -0.370813      -0.343576       0.141068       1.000000
 0.25293132E+00   -10.70075815      -0.372886      -0.339184       0.140060       1.000000
 0.25460637E+00   -10.67713680      -0.374550      -0.335164       0.139162       1.000000
 0.25628141E+00   -10.65349420      -0.375867      -0.331456       0.138455       1.000000
 0.25795645E+00   -10.62983443      -0.376880      -0.328013       0.138045       1.000000
 0.25963149E+00   -10.60616132      -0.377617      -0.324797       0.138079       1.000000
 0.26130653E+00   -10.58247885      -0.378093      -0.321777       0.138778       1.000000
 0.26298158E+00   -10.55879136      -0.378302      -0.318927       0.140493       1.000000
 0.26465662E+00   -10.53510302      -0.378214      -0.316221       0.143821       1.000000
 0.26633166E+00   -10.51141823      -0.377743      -0.313624       0.149868       1.000000
 0.26800670E+00   -10.48774138      -0.376678      -0.311075       0.160943       1.000000
 0.26968174E+00   -10.46407731      -0.374401      -0.308387       0.182792       1.000000
 0.27135678E+00   -10.44043063      -0.368397      -0.304629       0.234594       1.000000
 0.27303183E+00   -10.41680639      -0.334229      -0.287430       0.436510       1.000000
 0.27470687E+00   -10.39321772       0.360777       0.239649       0.518126       1.000000
 0.27638191E+00   -10.36967568       0.405524       0.293716       0.111933       1.000000
 0.27805695E+00   -10.34617097       0.405326       0.296135       0.039196       1.000000
 0.27973199E+00   -10.32270796       0.404217       0.295636       0.012368       1.000000
 0.28140704E+00   -10.29929150       0.403115       0.294557       0.000309       1.000000
 0.28308208E+00   -10.27592690       0.402032       0.293337      -0.005037       1.000000
 0.28475712E+00   -10.25261874       0.400927       0.292111      -0.006650       1.000000
 0.28643216E+00   -10.22937326       0.399766       0.290940      -0.005867       1.000000
 0.28810720E+00   -10.20619555       0.398520       0.289854      -0.003353       1.000000
 0.28978225E+00   -10.18309100       0.397162       0.288880       0.000548       1.000000
 0.29145729E+00   -10.16006522       0.395666       0.288040       0.005671       1.000000
 0.29313233E+00   -10.13712376       0.394001       0.287360       0.011957       1.000000
 0.29480737E+00   -10.11427264       0.392129       0.286870       0.019434       1.000000
 0.29648241E+00   -10.09151753       0.390000       0.286608       0.028204       1.000000
 0.29815745E+00   -10.06886436       0.387549       0.286626       0.038449       1.000000
 0.29983250E+00   -10.04631899       0.384681       0.286989       0.050450       1.000000
 0.30150754E+00   -10.02388772       0.381260       0.287790       0.064624       1.000000
 0.30318258E+00   -10.00157651       0.377082       0.289157       0.081592       1.000000
 0.30485762E+00    -9.97939157       0.371824       0.291274       0.102289       1.000000
 0.30653266E+00    -9.95733906       0.364951       0.294406       0.128176       1.000000
 0.30820771E+00    -9.93542563       0.355517       0.298949       0.161635       1.000000
 0.30988275E+00    -9.91365772       0.341709       0.305472       0.206758       1.000000
 0.31155779E+00    -9.89204199       0.319693       0.314706       0.270986       1.000000
 0.31323283E+00    -9.87058587       0.280331       0.326907       0.368342       1.000000
 0.31490787E+00    -9.84929721       0.199476       0.337110       0.521927       1.000000
 0.31658292E+00    -9.82818561       0.023630       0.309881       0.722398       1.000000
 0.31825796E+00    -9.80726252      -0.222270       0.174355       0.754788       1.000000
 0.31993300E+00    -9.78653994      -0.349768       0.027479       0.575191       1.000000
 0.32160804E+00    -9.76602740      -0.384914      -0.051696       0.418532       1.000000
 0.32328308E+00    -9.74574211      -0.392731      -0.089895       0.316851       1.000000
 0.32495812E+00    -9.72571229      -0.392840      -0.107158       0.249131       1.000000
 0.32663317E+00    -9.70599103      -0.389872      -0.110987       0.200965       1.000000
 0.32830821E+00    -9.68669078      -0.383192      -0.101855       0.164366       1.000000
 0.32998325E+00    -9.66811676      -0.363960      -0.072602       0.133698       1.000000
 0.33165829E+00    -9.65143004      -0.276148      -0.004121       0.095538       1.000000
 0.33333333E+00    -9.64276072       0.134100      -0.089757      -0.060867       1.000000
 0.33333333E+00    -9.64276072       0.134100      -0.089757      -0.060867       1.000000
 0.33500838E+00    -9.65134189      -0.135941       0.246807       0.618509       1.000000
 0.33668342E+00    -9.66754453      -0.257414       0.145270       0.738760       1.000000
 0.33835846E+00    -9.68524763      -0.287742       0.079877       0.761836       1.000000
 0.34003350E+00    -9.70330604      -0.300085       0.039117       0.765699       1.000000
 0.34170854E+00    -9.72142067      -0.307398       0.010294       0.762876       1.000000
 0.34338359E+00    -9.73948119      -0.312982      -0.012125       0.756724       1.000000
 0.34505863E+00    -9.75743853      -0.317975      -0.030796       0.748343       1.000000
 0.34673367E+00    -9.77526700      -0.322903      -0.047157       0.738027       1.000000
 0.34840871E+00    -9.79295055      -0.328091      -0.062084       0.725662       1.000000
 0.35008375E+00    -9.81048040      -0.333810      -0.076183       0.710845       1.000000
 0.35175879E+00    -9.82784921      -0.340333      -0.089930       0.692862       1.000000
 0.35343384E+00    -9.84505323      -0.347980      -0.103756       0.670581       1.000000
 0.35510888E+00    -9.86208837      -0.357144      -0.118120       0.642216       1.000000
 0.35678392E+00    -9.87895249      -0.368310      -0.133553       0.604892       1.000000
 0.35845896E+00    -9.89564420      -0.382037      -0.150720       0.553791       1.000000
 0.36013400E+00    -9.91216139      -0.398775      -0.170419       0.480461       1.000000
 0.36180905E+00    -9.92850341      -0.418052      -0.193335       0.369601       1.000000
 0.36348409E+00    -9.94466998      -0.435495      -0.218671       0.194165       1.000000
