 #  energy  xx  yy  zz  xy  xz  yz
         0.0000         2.5625         2.0167         1.0000         0.0000         0.0000         0.0000
         0.0013         2.5630         2.0171         1.0000         0.0000         0.0000         0.0000
         0.0027         2.5634         2.0174         1.0000         0.0000         0.0000         0.0000
         0.0040         2.5638         2.0178         1.0000         0.0000         0.0000         0.0000
         0.0053         2.5642         2.0181         1.0000         0.0000         0.0000         0.0000
         0.0067         2.5647         2.0185         1.0000         0.0000         0.0000         0.0000
         0.0080         2.5651         2.0188         1.0000         0.0000         0.0000         0.0000
         0.0093         2.5655         2.0191         1.0000         0.0000         0.0000         0.0000
         0.0107         2.5660         2.0195         1.0000         0.0000         0.0000         0.0000
         0.0120         2.5664         2.0198         1.0000         0.0000         0.0000         0.0000
         0.0133         2.5668         2.0202         1.0000         0.0000         0.0000         0.0000
         0.0147         2.5672         2.0205         1.0000         0.0000         0.0000         0.0000
         0.0160         2.5677         2.0209         1.0000         0.0000         0.0000         0.0000
         0.0173         2.5681         2.0212         1.0000         0.0000         0.0000         0.0000
         0.0187         2.5685         2.0215         1.0000         0.0000         0.0000         0.0000
         0.0200         2.5690         2.0219         1.0000         0.0000         0.0000         0.0000
         0.0213         2.5694         2.0222         1.0000         0.0000         0.0000         0.0000
         0.0227         2.5698         2.0226         1.0000         0.0000         0.0000         0.0000
         0.0240         2.5702         2.0229         1.0000         0.0000         0.0000         0.0000
         0.0253         2.5707         2.0233         1.0000         0.0000         0.0000         0.0000
         0.0267         2.5711         2.0236         1.0000         0.0000         0.0000         0.0000
         0.0280         2.5715         2.0240         1.0000         0.0000         0.0000         0.0000
         0.0293         2.5720         2.0243         1.0000         0.0000         0.0000         0.0000
         0.0307         2.5724         2.0247         1.0000         0.0000         0.0000         0.0000
         0.0320         2.5728         2.0250         1.0000         0.0000         0.0000         0.0000
         0.0333         2.5733         2.0254         1.0000         0.0000         0.0000         0.0000
         0.0347         2.5737         2.0257         1.0000         0.0000         0.0000         0.0000
         0.0360         2.5741         2.0261         1.0000         0.0000         0.0000         0.0000
         0.0373         2.5746         2.0264         1.0000         0.0000         0.0000         0.0000
         0.0387         2.5750         2.0268         1.0000         0.0000         0.0000         0.0000
         0.0400         2.5754         2.0271         1.0000         0.0000         0.0000         0.0000
         0.0413         2.5759         2.0275         1.0000         0.0000         0.0000         0.0000
         0.0427         2.5763         2.0278         1.0000         0.0000         0.0000         0.0000
         0.0440         2.5767         2.0282         1.0000         0.0000         0.0000         0.0000
         0.0453         2.5772         2.0285         1.0000         0.0000         0.0000         0.0000
         0.0467         2.5776         2.0289         1.0000         0.0000         0.0000         0.0000
         0.0480         2.5781         2.0292         1.0000         0.0000         0.0000         0.0000
         0.0493         2.5785         2.0296         1.0000         0.0000         0.0000         0.0000
         0.0507         2.5789         2.0299         1.0000         0.0000         0.0000         0.0000
         0.0520         2.5794         2.0303         1.0000         0.0000         0.0000         0.0000
         0.0533         2.5798         2.0306         1.0000         0.0000         0.0000         0.0000
         0.0547         2.5802         2.0310         1.0000         0.0000         0.0000         0.0000
         0.0560         2.5807         2.0314         1.0000         0.0000         0.0000         0.0000
         0.0573         2.5811         2.0317         1.0000         0.0000         0.0000         0.0000
         0.0587         2.5816         2.0321         1.0000         0.0000         0.0000         0.0000
         0.0600         2.5820         2.0324         1.0000         0.0000         0.0000         0.0000
         0.0613         2.5824         2.0328         1.0000         0.0000         0.0000         0.0000
         0.0627         2.5829         2.0331         1.0000         0.0000         0.0000         0.0000
         0.0640         2.5833         2.0335         1.0000         0.0000         0.0000         0.0000
         0.0653         2.5838         2.0338         1.0000         0.0000         0.0000         0.0000
         0.0667         2.5842         2.0342         1.0000         0.0000         0.0000         0.0000
         0.0680         2.5846         2.0346         1.0000         0.0000         0.0000         0.0000
         0.0693         2.5851         2.0349         1.0000         0.0000         0.0000         0.0000
         0.0707         2.5855         2.0353         1.0000         0.0000         0.0000         0.0000
         0.0720         2.5860         2.0356         1.0000         0.0000         0.0000         0.0000
         0.0733         2.5864         2.0360         1.0000         0.0000         0.0000         0.0000
         0.0747         2.5869         2.0363         1.0000         0.0000         0.0000         0.0000
         0.0760         2.5873         2.0367         1.0000         0.0000         0.0000         0.0000
         0.0773         2.5877         2.0371         1.0000         0.0000         0.0000         0.0000
         0.0787         2.5882         2.0374         1.0000         0.0000         0.0000         0.0000
         0.0800         2.5886         2.0378         1.0000         0.0000         0.0000         0.0000
         0.0813         2.5891         2.0381         1.0000         0.0000         0.0000         0.0000
         0.0827         2.5895         2.0385         1.0000         0.0000         0.0000         0.0000
         0.0840         2.5900         2.0389         1.0000         0.0000         0.0000         0.0000
         0.0853         2.5904         2.0392         1.0000         0.0000         0.0000         0.0000
         0.0867         2.5909         2.0396         1.0000         0.0000         0.0000         0.0000
         0.0880         2.5913         2.0400         1.0000         0.0000         0.0000         0.0000
         0.0893         2.5918         2.0403         1.0000         0.0000         0.0000         0.0000
         0.0907         2.5922         2.0407         1.0000         0.0000         0.0000         0.0000
         0.0920         2.5927         2.0410         1.0000         0.0000         0.0000         0.0000
         0.0933         2.5931         2.0414         1.0000         0.0000         0.0000         0.0000
         0.0947         2.5936         2.0418         1.0000         0.0000         0.0000         0.0000
         0.0960         2.5940         2.0421         1.0000         0.0000         0.0000         0.0000
         0.0973         2.5944         2.0425         1.0000         0.0000         0.0000         0.0000
         0.0987         2.5949         2.0429         1.0000         0.0000         0.0000         0.0000
         0.1000         2.5953         2.0432         1.0000         0.0000         0.0000         0.0000
         0.1013         2.5958         2.0436         1.0000         0.0000         0.0000         0.0000
         0.1027         2.5963         2.0440         1.0000         0.0000         0.0000         0.0000
         0.1040         2.5967         2.0443         1.0000         0.0000         0.0000         0.0000
         0.1053         2.5972         2.0447         1.0000         0.0000         0.0000         0.0000
         0.1067         2.5976         2.0451         1.0000         0.0000         0.0000         0.0000
         0.1080         2.5981         2.0454         1.0000         0.0000         0.0000         0.0000
         0.1093         2.5985         2.0458         1.0000         0.0000         0.0000         0.0000
         0.1107         2.5990         2.0462         1.0000         0.0000         0.0000         0.0000
         0.1120         2.5994         2.0465         1.0000         0.0000         0.0000         0.0000
         0.1133         2.5999         2.0469         1.0000         0.0000         0.0000         0.0000
         0.1147         2.6003         2.0473         1.0000         0.0000         0.0000         0.0000
         0.1160         2.6008         2.0476         1.0000         0.0000         0.0000         0.0000
         0.1173         2.6012         2.0480         1.0000         0.0000         0.0000         0.0000
         0.1187         2.6017         2.0484         1.0000         0.0000         0.0000         0.0000
         0.1200         2.6021         2.0488         1.0000         0.0000         0.0000         0.0000
         0.1213         2.6026         2.0491         1.0000         0.0000         0.0000         0.0000
         0.1227         2.6031         2.0495         1.0000         0.0000         0.0000         0.0000
         0.1240         2.6035         2.0499         1.0000         0.0000         0.0000         0.0000
         0.1253         2.6040         2.0502         1.0000         0.0000         0.0000         0.0000
         0.1267         2.6044         2.0506         1.0000         0.0000         0.0000         0.0000
         0.1280         2.6049         2.0510         1.0000         0.0000         0.0000         0.0000
         0.1293         2.6053         2.0514         1.0000         0.0000         0.0000         0.0000
         0.1307         2.6058         2.0517         1.0000         0.0000         0.0000         0.0000
         0.1320         2.6063         2.0521         1.0000         0.0000         0.0000         0.0000
         0.1333         2.6067         2.0525         1.0000         0.0000         0.0000         0.0000
         0.1347         2.6072         2.0529         1.0000         0.0000         0.0000         0.0000
         0.1360         2.6076         2.0532         1.0000         0.0000         0.0000         0.0000
         0.1373         2.6081         2.0536         1.0000         0.0000         0.0000         0.0000
         0.1387         2.6086         2.0540         1.0000         0.0000         0.0000         0.0000
         0.1400         2.6090         2.0544         1.0000         0.0000         0.0000         0.0000
         0.1413         2.6095         2.0547         1.0000         0.0000         0.0000         0.0000
         0.1427         2.6099         2.0551         1.0000         0.0000         0.0000         0.0000
         0.1440         2.6104         2.0555         1.0000         0.0000         0.0000         0.0000
         0.1453         2.6109         2.0559         1.0000         0.0000         0.0000         0.0000
         0.1467         2.6113         2.0562         1.0000         0.0000         0.0000         0.0000
         0.1480         2.6118         2.0566         1.0000         0.0000         0.0000         0.0000
         0.1493         2.6123         2.0570         1.0000         0.0000         0.0000         0.0000
         0.1507         2.6127         2.0574         1.0000         0.0000         0.0000         0.0000
         0.1520         2.6132         2.0578         1.0000         0.0000         0.0000         0.0000
         0.1533         2.6137         2.0581         1.0000         0.0000         0.0000         0.0000
         0.1547         2.6141         2.0585         1.0000         0.0000         0.0000         0.0000
         0.1560         2.6146         2.0589         1.0000         0.0000         0.0000         0.0000
         0.1573         2.6150         2.0593         1.0000         0.0000         0.0000         0.0000
         0.1587         2.6155         2.0597         1.0000         0.0000         0.0000         0.0000
         0.1600         2.6160         2.0600         1.0000         0.0000         0.0000         0.0000
         0.1613         2.6164         2.0604         1.0000         0.0000         0.0000         0.0000
         0.1627         2.6169         2.0608         1.0000         0.0000         0.0000         0.0000
         0.1640         2.6174         2.0612         1.0000         0.0000         0.0000         0.0000
         0.1653         2.6179         2.0616         1.0000         0.0000         0.0000         0.0000
         0.1667         2.6183         2.0619         1.0000         0.0000         0.0000         0.0000
         0.1680         2.6188         2.0623         1.0000         0.0000         0.0000         0.0000
         0.1693         2.6193         2.0627         1.0000         0.0000         0.0000         0.0000
         0.1707         2.6197         2.0631         1.0000         0.0000         0.0000         0.0000
         0.1720         2.6202         2.0635         1.0000         0.0000         0.0000         0.0000
         0.1733         2.6207         2.0639         1.0000         0.0000         0.0000         0.0000
         0.1747         2.6211         2.0643         1.0000         0.0000         0.0000         0.0000
         0.1760         2.6216         2.0646         1.0000         0.0000         0.0000         0.0000
         0.1773         2.6221         2.0650         1.0000         0.0000         0.0000         0.0000
         0.1787         2.6226         2.0654         1.0000         0.0000         0.0000         0.0000
         0.1800         2.6230         2.0658         1.0000         0.0000         0.0000         0.0000
         0.1813         2.6235         2.0662         1.0000         0.0000         0.0000         0.0000
         0.1827         2.6240         2.0666         1.0000         0.0000         0.0000         0.0000
         0.1840         2.6245         2.0670         1.0000         0.0000         0.0000         0.0000
         0.1853         2.6249         2.0674         1.0000         0.0000         0.0000         0.0000
         0.1867         2.6254         2.0677         1.0000         0.0000         0.0000         0.0000
         0.1880         2.6259         2.0681         1.0000         0.0000         0.0000         0.0000
         0.1893         2.6264         2.0685         1.0000         0.0000         0.0000         0.0000
         0.1907         2.6268         2.0689         1.0000         0.0000         0.0000         0.0000
         0.1920         2.6273         2.0693         1.0000         0.0000         0.0000         0.0000
         0.1933         2.6278         2.0697         1.0000         0.0000         0.0000         0.0000
         0.1947         2.6283         2.0701         1.0000         0.0000         0.0000         0.0000
         0.1960         2.6287         2.0705         1.0000         0.0000         0.0000         0.0000
         0.1973         2.6292         2.0709         1.0000         0.0000         0.0000         0.0000
         0.1987         2.6297         2.0713         1.0000         0.0000         0.0000         0.0000
         0.2000         2.6302         2.0717         1.0000         0.0000         0.0000         0.0000
         0.2013         2.6306         2.0720         1.0000         0.0000         0.0000         0.0000
         0.2027         2.6311         2.0724         1.0000         0.0000         0.0000         0.0000
         0.2040         2.6316         2.0728         1.0000         0.0000         0.0000         0.0000
         0.2053         2.6321         2.0732         1.0000         0.0000         0.0000         0.0000
         0.2067         2.6326         2.0736         1.0000         0.0000         0.0000         0.0000
         0.2080         2.6330         2.0740         1.0000         0.0000         0.0000         0.0000
         0.2093         2.6335         2.0744         1.0000         0.0000         0.0000         0.0000
         0.2107         2.6340         2.0748         1.0000         0.0000         0.0000         0.0000
         0.2120         2.6345         2.0752         1.0000         0.0000         0.0000         0.0000
         0.2133         2.6350         2.0756         1.0000         0.0000         0.0000         0.0000
         0.2147         2.6355         2.0760         1.0000         0.0000         0.0000         0.0000
         0.2160         2.6359         2.0764         1.0000         0.0000         0.0000         0.0000
         0.2173         2.6364         2.0768         1.0000         0.0000         0.0000         0.0000
         0.2187         2.6369         2.0772         1.0000         0.0000         0.0000         0.0000
         0.2200         2.6374         2.0776         1.0000         0.0000         0.0000         0.0000
         0.2213         2.6379         2.0780         1.0000         0.0000         0.0000         0.0000
         0.2227         2.6384         2.0784         1.0000         0.0000         0.0000         0.0000
         0.2240         2.6389         2.0788         1.0000         0.0000         0.0000         0.0000
         0.2253         2.6393         2.0792         1.0000         0.0000         0.0000         0.0000
         0.2267         2.6398         2.0796         1.0000         0.0000         0.0000         0.0000
         0.2280         2.6403         2.0800         1.0000         0.0000         0.0000         0.0000
         0.2293         2.6408         2.0804         1.0000         0.0000         0.0000         0.0000
         0.2307         2.6413         2.0808         1.0000         0.0000         0.0000         0.0000
         0.2320         2.6418         2.0812         1.0000         0.0000         0.0000         0.0000
         0.2333         2.6423         2.0816         1.0000         0.0000         0.0000         0.0000
         0.2347         2.6428         2.0820         1.0000         0.0000         0.0000         0.0000
         0.2360         2.6432         2.0824         1.0000         0.0000         0.0000         0.0000
         0.2373         2.6437         2.0828         1.0000         0.0000         0.0000         0.0000
         0.2387         2.6442         2.0832         1.0000         0.0000         0.0000         0.0000
         0.2400         2.6447         2.0836         1.0000         0.0000         0.0000         0.0000
         0.2413         2.6452         2.0840         1.0000         0.0000         0.0000         0.0000
         0.2427         2.6457         2.0844         1.0000         0.0000         0.0000         0.0000
         0.2440         2.6462         2.0848         1.0000         0.0000         0.0000         0.0000
         0.2453         2.6467         2.0853         1.0000         0.0000         0.0000         0.0000
         0.2467         2.6472         2.0857         1.0000         0.0000         0.0000         0.0000
         0.2480         2.6477         2.0861         1.0000         0.0000         0.0000         0.0000
         0.2493         2.6482         2.0865         1.0000         0.0000         0.0000         0.0000
