 #  energy  xx  yy  zz  xy  xz  yz
         0.0000         2.4019         1.8943         1.0000         0.0000         0.0000         0.0000
         0.0013         2.4022         1.8945         1.0000         0.0000         0.0000         0.0000
         0.0027         2.4026         1.8948         1.0000         0.0000         0.0000         0.0000
         0.0040         2.4029         1.8950         1.0000         0.0000         0.0000         0.0000
         0.0053         2.4032         1.8952         1.0000         0.0000         0.0000         0.0000
         0.0067         2.4035         1.8955         1.0000         0.0000         0.0000         0.0000
         0.0080         2.4038         1.8957         1.0000         0.0000         0.0000         0.0000
         0.0093         2.4041         1.8960         1.0000         0.0000         0.0000         0.0000
         0.0107         2.4045         1.8962         1.0000         0.0000         0.0000         0.0000
         0.0120         2.4048         1.8965         1.0000         0.0000         0.0000         0.0000
         0.0133         2.4051         1.8967         1.0000         0.0000         0.0000         0.0000
         0.0147         2.4054         1.8970         1.0000         0.0000         0.0000         0.0000
         0.0160         2.4057         1.8972         1.0000         0.0000         0.0000         0.0000
         0.0173         2.4060         1.8975         1.0000         0.0000         0.0000         0.0000
         0.0187         2.4064         1.8977         1.0000         0.0000         0.0000         0.0000
         0.0200         2.4067         1.8979         1.0000         0.0000         0.0000         0.0000
         0.0213         2.4070         1.8982         1.0000         0.0000         0.0000         0.0000
         0.0227         2.4073         1.8984         1.0000         0.0000         0.0000         0.0000
         0.0240         2.4076         1.8987         1.0000         0.0000         0.0000         0.0000
         0.0253         2.4080         1.8989         1.0000         0.0000         0.0000         0.0000
         0.0267         2.4083         1.8992         1.0000         0.0000         0.0000         0.0000
         0.0280         2.4086         1.8994         1.0000         0.0000         0.0000         0.0000
         0.0293         2.4089         1.8997         1.0000         0.0000         0.0000         0.0000
         0.0307         2.4092         1.8999         1.0000         0.0000         0.0000         0.0000
         0.0320         2.4096         1.9002         1.0000         0.0000         0.0000         0.0000
         0.0333         2.4099         1.9004         1.0000         0.0000         0.0000         0.0000
         0.0347         2.4102         1.9007         1.0000         0.0000         0.0000         0.0000
         0.0360         2.4105         1.9009         1.0000         0.0000         0.0000         0.0000
         0.0373         2.4108         1.9012         1.0000         0.0000         0.0000         0.0000
         0.0387         2.4112         1.9014         1.0000         0.0000         0.0000         0.0000
         0.0400         2.4115         1.9017         1.0000         0.0000         0.0000         0.0000
         0.0413         2.4118         1.9019         1.0000         0.0000         0.0000         0.0000
         0.0427         2.4121         1.9022         1.0000         0.0000         0.0000         0.0000
         0.0440         2.4124         1.9024         1.0000         0.0000         0.0000         0.0000
         0.0453         2.4128         1.9027         1.0000         0.0000         0.0000         0.0000
         0.0467         2.4131         1.9029         1.0000         0.0000         0.0000         0.0000
         0.0480         2.4134         1.9032         1.0000         0.0000         0.0000         0.0000
         0.0493         2.4137         1.9034         1.0000         0.0000         0.0000         0.0000
         0.0507         2.4141         1.9037         1.0000         0.0000         0.0000         0.0000
         0.0520         2.4144         1.9039         1.0000         0.0000         0.0000         0.0000
         0.0533         2.4147         1.9042         1.0000         0.0000         0.0000         0.0000
         0.0547         2.4150         1.9044         1.0000         0.0000         0.0000         0.0000
         0.0560         2.4153         1.9047         1.0000         0.0000         0.0000         0.0000
         0.0573         2.4157         1.9049         1.0000         0.0000         0.0000         0.0000
         0.0587         2.4160         1.9052         1.0000         0.0000         0.0000         0.0000
         0.0600         2.4163         1.9054         1.0000         0.0000         0.0000         0.0000
         0.0613         2.4166         1.9057         1.0000         0.0000         0.0000         0.0000
         0.0627         2.4170         1.9059         1.0000         0.0000         0.0000         0.0000
         0.0640         2.4173         1.9062         1.0000         0.0000         0.0000         0.0000
         0.0653         2.4176         1.9064         1.0000         0.0000         0.0000         0.0000
         0.0667         2.4179         1.9067         1.0000         0.0000         0.0000         0.0000
         0.0680         2.4183         1.9069         1.0000         0.0000         0.0000         0.0000
         0.0693         2.4186         1.9072         1.0000         0.0000         0.0000         0.0000
         0.0707         2.4189         1.9074         1.0000         0.0000         0.0000         0.0000
         0.0720         2.4192         1.9077         1.0000         0.0000         0.0000         0.0000
         0.0733         2.4196         1.9079         1.0000         0.0000         0.0000         0.0000
         0.0747         2.4199         1.9082         1.0000         0.0000         0.0000         0.0000
         0.0760         2.4202         1.9084         1.0000         0.0000         0.0000         0.0000
         0.0773         2.4205         1.9087         1.0000         0.0000         0.0000         0.0000
         0.0787         2.4209         1.9089         1.0000         0.0000         0.0000         0.0000
         0.0800         2.4212         1.9092         1.0000         0.0000         0.0000         0.0000
         0.0813         2.4215         1.9094         1.0000         0.0000         0.0000         0.0000
         0.0827         2.4219         1.9097         1.0000         0.0000         0.0000         0.0000
         0.0840         2.4222         1.9100         1.0000         0.0000         0.0000         0.0000
         0.0853         2.4225         1.9102         1.0000         0.0000         0.0000         0.0000
         0.0867         2.4228         1.9105         1.0000         0.0000         0.0000         0.0000
         0.0880         2.4232         1.9107         1.0000         0.0000         0.0000         0.0000
         0.0893         2.4235         1.9110         1.0000         0.0000         0.0000         0.0000
         0.0907         2.4238         1.9112         1.0000         0.0000         0.0000         0.0000
         0.0920         2.4242         1.9115         1.0000         0.0000         0.0000         0.0000
         0.0933         2.4245         1.9117         1.0000         0.0000         0.0000         0.0000
         0.0947         2.4248         1.9120         1.0000         0.0000         0.0000         0.0000
         0.0960         2.4251         1.9123         1.0000         0.0000         0.0000         0.0000
         0.0973         2.4255         1.9125         1.0000         0.0000         0.0000         0.0000
         0.0987         2.4258         1.9128         1.0000         0.0000         0.0000         0.0000
         0.1000         2.4261         1.9130         1.0000         0.0000         0.0000         0.0000
         0.1013         2.4265         1.9133         1.0000         0.0000         0.0000         0.0000
         0.1027         2.4268         1.9135         1.0000         0.0000         0.0000         0.0000
         0.1040         2.4271         1.9138         1.0000         0.0000         0.0000         0.0000
         0.1053         2.4274         1.9140         1.0000         0.0000         0.0000         0.0000
         0.1067         2.4278         1.9143         1.0000         0.0000         0.0000         0.0000
         0.1080         2.4281         1.9146         1.0000         0.0000         0.0000         0.0000
         0.1093         2.4284         1.9148         1.0000         0.0000         0.0000         0.0000
         0.1107         2.4288         1.9151         1.0000         0.0000         0.0000         0.0000
         0.1120         2.4291         1.9153         1.0000         0.0000         0.0000         0.0000
         0.1133         2.4294         1.9156         1.0000         0.0000         0.0000         0.0000
         0.1147         2.4298         1.9159         1.0000         0.0000         0.0000         0.0000
         0.1160         2.4301         1.9161         1.0000         0.0000         0.0000         0.0000
         0.1173         2.4304         1.9164         1.0000         0.0000         0.0000         0.0000
         0.1187         2.4308         1.9166         1.0000         0.0000         0.0000         0.0000
         0.1200         2.4311         1.9169         1.0000         0.0000         0.0000         0.0000
         0.1213         2.4314         1.9171         1.0000         0.0000         0.0000         0.0000
         0.1227         2.4318         1.9174         1.0000         0.0000         0.0000         0.0000
         0.1240         2.4321         1.9177         1.0000         0.0000         0.0000         0.0000
         0.1253         2.4324         1.9179         1.0000         0.0000         0.0000         0.0000
         0.1267         2.4328         1.9182         1.0000         0.0000         0.0000         0.0000
         0.1280         2.4331         1.9184         1.0000         0.0000         0.0000         0.0000
         0.1293         2.4334         1.9187         1.0000         0.0000         0.0000         0.0000
         0.1307         2.4338         1.9190         1.0000         0.0000         0.0000         0.0000
         0.1320         2.4341         1.9192         1.0000         0.0000         0.0000         0.0000
         0.1333         2.4344         1.9195         1.0000         0.0000         0.0000         0.0000
         0.1347         2.4348         1.9197         1.0000         0.0000         0.0000         0.0000
         0.1360         2.4351         1.9200         1.0000         0.0000         0.0000         0.0000
         0.1373         2.4354         1.9203         1.0000         0.0000         0.0000         0.0000
         0.1387         2.4358         1.9205         1.0000         0.0000         0.0000         0.0000
         0.1400         2.4361         1.9208         1.0000         0.0000         0.0000         0.0000
         0.1413         2.4364         1.9211         1.0000         0.0000         0.0000         0.0000
         0.1427         2.4368         1.9213         1.0000         0.0000         0.0000         0.0000
         0.1440         2.4371         1.9216         1.0000         0.0000         0.0000         0.0000
         0.1453         2.4375         1.9218         1.0000         0.0000         0.0000         0.0000
         0.1467         2.4378         1.9221         1.0000         0.0000         0.0000         0.0000
         0.1480         2.4381         1.9224         1.0000         0.0000         0.0000         0.0000
         0.1493         2.4385         1.9226         1.0000         0.0000         0.0000         0.0000
         0.1507         2.4388         1.9229         1.0000         0.0000         0.0000         0.0000
         0.1520         2.4391         1.9232         1.0000         0.0000         0.0000         0.0000
         0.1533         2.4395         1.9234         1.0000         0.0000         0.0000         0.0000
         0.1547         2.4398         1.9237         1.0000         0.0000         0.0000         0.0000
         0.1560         2.4402         1.9239         1.0000         0.0000         0.0000         0.0000
         0.1573         2.4405         1.9242         1.0000         0.0000         0.0000         0.0000
         0.1587         2.4408         1.9245         1.0000         0.0000         0.0000         0.0000
         0.1600         2.4412         1.9247         1.0000         0.0000         0.0000         0.0000
         0.1613         2.4415         1.9250         1.0000         0.0000         0.0000         0.0000
         0.1627         2.4419         1.9253         1.0000         0.0000         0.0000         0.0000
         0.1640         2.4422         1.9255         1.0000         0.0000         0.0000         0.0000
         0.1653         2.4425         1.9258         1.0000         0.0000         0.0000         0.0000
         0.1667         2.4429         1.9261         1.0000         0.0000         0.0000         0.0000
         0.1680         2.4432         1.9263         1.0000         0.0000         0.0000         0.0000
         0.1693         2.4436         1.9266         1.0000         0.0000         0.0000         0.0000
         0.1707         2.4439         1.9269         1.0000         0.0000         0.0000         0.0000
         0.1720         2.4442         1.9271         1.0000         0.0000         0.0000         0.0000
         0.1733         2.4446         1.9274         1.0000         0.0000         0.0000         0.0000
         0.1747         2.4449         1.9277         1.0000         0.0000         0.0000         0.0000
         0.1760         2.4453         1.9279         1.0000         0.0000         0.0000         0.0000
         0.1773         2.4456         1.9282         1.0000         0.0000         0.0000         0.0000
         0.1787         2.4459         1.9285         1.0000         0.0000         0.0000         0.0000
         0.1800         2.4463         1.9287         1.0000         0.0000         0.0000         0.0000
         0.1813         2.4466         1.9290         1.0000         0.0000         0.0000         0.0000
         0.1827         2.4470         1.9293         1.0000         0.0000         0.0000         0.0000
         0.1840         2.4473         1.9295         1.0000         0.0000         0.0000         0.0000
         0.1853         2.4477         1.9298         1.0000         0.0000         0.0000         0.0000
         0.1867         2.4480         1.9301         1.0000         0.0000         0.0000         0.0000
         0.1880         2.4483         1.9303         1.0000         0.0000         0.0000         0.0000
         0.1893         2.4487         1.9306         1.0000         0.0000         0.0000         0.0000
         0.1907         2.4490         1.9309         1.0000         0.0000         0.0000         0.0000
         0.1920         2.4494         1.9311         1.0000         0.0000         0.0000         0.0000
         0.1933         2.4497         1.9314         1.0000         0.0000         0.0000         0.0000
         0.1947         2.4501         1.9317         1.0000         0.0000         0.0000         0.0000
         0.1960         2.4504         1.9320         1.0000         0.0000         0.0000         0.0000
         0.1973         2.4507         1.9322         1.0000         0.0000         0.0000         0.0000
         0.1987         2.4511         1.9325         1.0000         0.0000         0.0000         0.0000
         0.2000         2.4514         1.9328         1.0000         0.0000         0.0000         0.0000
         0.2013         2.4518         1.9330         1.0000         0.0000         0.0000         0.0000
         0.2027         2.4521         1.9333         1.0000         0.0000         0.0000         0.0000
         0.2040         2.4525         1.9336         1.0000         0.0000         0.0000         0.0000
         0.2053         2.4528         1.9338         1.0000         0.0000         0.0000         0.0000
         0.2067         2.4532         1.9341         1.0000         0.0000         0.0000         0.0000
         0.2080         2.4535         1.9344         1.0000         0.0000         0.0000         0.0000
         0.2093         2.4539         1.9347         1.0000         0.0000         0.0000         0.0000
         0.2107         2.4542         1.9349         1.0000         0.0000         0.0000         0.0000
         0.2120         2.4546         1.9352         1.0000         0.0000         0.0000         0.0000
         0.2133         2.4549         1.9355         1.0000         0.0000         0.0000         0.0000
         0.2147         2.4552         1.9357         1.0000         0.0000         0.0000         0.0000
         0.2160         2.4556         1.9360         1.0000         0.0000         0.0000         0.0000
         0.2173         2.4559         1.9363         1.0000         0.0000         0.0000         0.0000
         0.2187         2.4563         1.9366         1.0000         0.0000         0.0000         0.0000
         0.2200         2.4566         1.9368         1.0000         0.0000         0.0000         0.0000
         0.2213         2.4570         1.9371         1.0000         0.0000         0.0000         0.0000
         0.2227         2.4573         1.9374         1.0000         0.0000         0.0000         0.0000
         0.2240         2.4577         1.9377         1.0000         0.0000         0.0000         0.0000
         0.2253         2.4580         1.9379         1.0000         0.0000         0.0000         0.0000
         0.2267         2.4584         1.9382         1.0000         0.0000         0.0000         0.0000
         0.2280         2.4587         1.9385         1.0000         0.0000         0.0000         0.0000
         0.2293         2.4591         1.9388         1.0000         0.0000         0.0000         0.0000
         0.2307         2.4594         1.9390         1.0000         0.0000         0.0000         0.0000
         0.2320         2.4598         1.9393         1.0000         0.0000         0.0000         0.0000
         0.2333         2.4601         1.9396         1.0000         0.0000         0.0000         0.0000
         0.2347         2.4605         1.9399         1.0000         0.0000         0.0000         0.0000
         0.2360         2.4608         1.9401         1.0000         0.0000         0.0000         0.0000
         0.2373         2.4612         1.9404         1.0000         0.0000         0.0000         0.0000
         0.2387         2.4615         1.9407         1.0000         0.0000         0.0000         0.0000
         0.2400         2.4619         1.9410         1.0000         0.0000         0.0000         0.0000
         0.2413         2.4622         1.9412         1.0000         0.0000         0.0000         0.0000
         0.2427         2.4626         1.9415         1.0000         0.0000         0.0000         0.0000
         0.2440         2.4629         1.9418         1.0000         0.0000         0.0000         0.0000
         0.2453         2.4633         1.9421         1.0000         0.0000         0.0000         0.0000
         0.2467         2.4637         1.9423         1.0000         0.0000         0.0000         0.0000
         0.2480         2.4640         1.9426         1.0000         0.0000         0.0000         0.0000
         0.2493         2.4644         1.9429         1.0000         0.0000         0.0000         0.0000
