    2    2    1    1
  0.1172237E+03  0.4113367E-09  0.4113367E-09  0.1600000E-08  0.1000000E-16
  1.000000000000000E-004
  CAR 
 unknown system                          
     10     16     16
 
  0.0000000E+00  0.0000000E+00  0.0000000E+00  0.8264463E-02
      1        -13.564322   1.000000
      2         -8.591532   1.000000
      3         -2.890669   1.000000
      4         -2.283478   1.000000
      5         -2.283478   1.000000
      6         -0.716793   0.000000
      7          0.506730   0.000000
      8          0.506730   0.000000
      9          2.088934   0.000000
     10          2.167268   0.000000
     11          3.627377   0.000000
     12          4.527762   0.000000
     13          4.845907   0.000000
     14          5.885006   0.000000
     15          5.885006   0.000000
     16          6.496422   0.000000
 
  0.9090909E-01  0.6938894E-17  0.0000000E+00  0.4958678E-01
      1        -13.476457   1.000000
      2         -8.588750   1.000000
      3         -3.108909   1.000000
      4         -2.852640   1.000000
      5         -2.482441   1.000000
      6         -0.195962   0.000000
      7          0.435256   0.000000
      8          0.697802   0.000000
      9          2.207763   0.000000
     10          2.269262   0.000000
     11          3.707580   0.000000
     12          4.624106   0.000000
     13          4.872921   0.000000
     14          5.567062   0.000000
     15          5.803004   0.000000
     16          6.214930   0.000000
 
  0.1818182E+00  0.1387779E-16  0.0000000E+00  0.4958678E-01
      1        -13.216706   1.000000
      2         -8.629462   1.000000
      3         -4.254541   1.000000
      4         -2.905914   1.000000
      5         -2.787208   1.000000
      6         -0.604010   0.000000
      7          1.040830   0.000000
      8          1.085271   0.000000
      9          2.441454   0.000000
     10          2.594015   0.000000
     11          3.766415   0.000000
     12          4.514955   0.000000
     13          4.955782   0.000000
     14          5.462057   0.000000
     15          5.911130   0.000000
     16          6.596165   0.000000
 
  0.2727273E+00  0.0000000E+00  0.0000000E+00  0.4958678E-01
      1        -12.798094   1.000000
      2         -8.859262   1.000000
      3         -5.056205   1.000000
      4         -3.330060   1.000000
      5         -2.876061   1.000000
      6         -0.997369   0.000000
      7          1.088113   0.000000
      8          1.245136   0.000000
      9          2.764096   0.000000
     10          2.998066   0.000000
     11          3.889994   0.000000
     12          4.882792   0.000000
     13          5.292224   0.000000
     14          5.588199   0.000000
     15          6.362295   0.000000
     16          6.537541   0.000000
 
  0.3636364E+00  0.0000000E+00  0.0000000E+00  0.4958678E-01
      1        -12.259314   1.000000
      2         -9.378820   1.000000
      3         -5.327276   1.000000
      4         -3.647932   1.000000
      5         -3.265288   1.000000
      6         -0.959175   0.000000
      7          0.613813   0.000000
      8          1.284864   0.000000
      9          3.096725   0.000000
     10          3.401922   0.000000
     11          4.023245   0.000000
     12          5.200252   0.000000
     13          5.887777   0.000000
     14          5.926681   0.000000
     15          6.486019   0.000000
     16          6.832500   0.000000
 
  0.4545455E+00  0.0000000E+00  0.0000000E+00  0.4958678E-01
      1        -11.745757   1.000000
      2         -9.953890   1.000000
      3         -5.255766   1.000000
      4         -3.815329   1.000000
      5         -3.676872   1.000000
      6         -0.716647   0.000000
      7          0.219239   0.000000
      8          1.268478   0.000000
      9          2.846888   0.000000
     10          4.210468   0.000000
     11          4.614399   0.000000
     12          5.111445   0.000000
     13          5.438420   0.000000
     14          5.914856   0.000000
     15          6.458899   0.000000
     16          6.771621   0.000000
 
  0.9090909E-01  0.9090909E-01  0.0000000E+00  0.4958678E-01
      1        -13.302650   1.000000
      2         -8.606821   1.000000
      3         -3.910634   1.000000
      4         -2.945188   1.000000
      5         -2.783704   1.000000
      6          0.043263   0.000000
      7          0.251737   0.000000
      8          1.216581   0.000000
      9          2.429365   0.000000
     10          2.445537   0.000000
     11          3.712347   0.000000
     12          4.569557   0.000000
     13          4.806106   0.000000
     14          5.504777   0.000000
     15          6.172941   0.000000
     16          6.190230   0.000000
 
  0.1818182E+00  0.9090909E-01  0.0000000E+00  0.9917355E-01
      1        -12.962289   1.000000
      2         -8.738883   1.000000
      3         -4.728877   1.000000
      4         -3.539361   1.000000
      5         -2.765767   1.000000
      6         -0.412870   0.000000
      7          0.724371   0.000000
      8          1.404812   0.000000
      9          2.668334   0.000000
     10          2.830851   0.000000
     11          3.694424   0.000000
     12          4.686685   0.000000
     13          5.146934   0.000000
     14          5.393720   0.000000
     15          6.349938   0.000000
     16          6.825223   0.000000
 
  0.2727273E+00  0.9090909E-01  0.0000000E+00  0.9917355E-01
      1        -12.477354   1.000000
      2         -9.125865   1.000000
      3         -5.197683   1.000000
      4         -3.978867   1.000000
      5         -2.970323   1.000000
      6         -0.628800   0.000000
      7          0.913158   0.000000
      8          1.052969   0.000000
      9          3.101652   0.000000
     10          3.264713   0.000000
     11          3.916954   0.000000
     12          5.154945   0.000000
     13          5.295824   0.000000
     14          5.730785   0.000000
     15          6.527119   0.000000
     16          6.858304   0.000000
 
  0.3636364E+00  0.9090909E-01  0.0000000E+00  0.9917355E-01
      1        -11.916770   1.000000
      2         -9.722926   1.000000
      3         -5.281983   1.000000
      4         -4.165435   1.000000
      5         -3.419242   1.000000
      6         -0.457599   0.000000
      7          0.446793   0.000000
      8          1.056731   0.000000
      9          3.097660   0.000000
     10          3.883924   0.000000
     11          4.375316   0.000000
     12          5.394489   0.000000
     13          5.788284   0.000000
     14          6.007510   0.000000
     15          6.408409   0.000000
     16          6.687586   0.000000
 
  0.4545455E+00  0.9090909E-01  0.0000000E+00  0.4958678E-01
      1        -11.578724   1.000000
      2        -10.097024   1.000000
      3         -5.253663   1.000000
      4         -4.120268   1.000000
      5         -3.740689   1.000000
      6         -0.156056   0.000000
      7          0.051682   0.000000
      8          1.084974   0.000000
      9          2.911058   0.000000
     10          4.758195   0.000000
     11          4.773921   0.000000
     12          5.069576   0.000000
     13          5.321003   0.000000
     14          5.877134   0.000000
     15          6.228229   0.000000
     16          7.155421   0.000000
 
  0.1818182E+00  0.1818182E+00  0.0000000E+00  0.4958678E-01
      1        -12.551970   1.000000
      2         -9.031783   1.000000
      3         -4.982256   1.000000
      4         -4.373669   1.000000
      5         -2.861736   1.000000
      6         -0.061016   0.000000
      7          0.374366   0.000000
      8          1.467745   0.000000
      9          3.097576   0.000000
     10          3.156946   0.000000
     11          3.747139   0.000000
     12          4.960639   0.000000
     13          5.028277   0.000000
     14          5.656696   0.000000
     15          6.465224   0.000000
     16          7.158211   0.000000
 
  0.2727273E+00  0.1818182E+00  0.0000000E+00  0.9917355E-01
      1        -12.019289   1.000000
      2         -9.543968   1.000000
      3         -5.151383   1.000000
      4         -4.741832   1.000000
      5         -3.187622   1.000000
      6         -0.130793   0.000000
      7          0.350409   0.000000
      8          1.388510   0.000000
      9          3.484131   0.000000
     10          3.757816   0.000000
     11          4.228722   0.000000
     12          4.836746   0.000000
     13          5.335701   0.000000
     14          6.229300   0.000000
     15          6.302591   0.000000
     16          6.815004   0.000000
 
  0.3636364E+00  0.1818182E+00  0.0000000E+00  0.9917355E-01
      1        -11.487869   1.000000
      2        -10.102672   1.000000
      3         -5.412224   1.000000
      4         -4.482420   1.000000
      5         -3.643698   1.000000
      6         -0.299481   0.000000
      7          0.661804   0.000000
      8          1.099570   0.000000
      9          3.372381   0.000000
     10          4.550130   0.000000
     11          4.844869   0.000000
     12          5.207808   0.000000
     13          5.617155   0.000000
     14          5.799268   0.000000
     15          6.368642   0.000000
     16          6.885940   0.000000
 
  0.2727273E+00  0.2727273E+00  0.0000000E+00  0.4958678E-01
      1        -11.466873   1.000000
      2        -10.074176   1.000000
      3         -5.533624   1.000000
      4         -4.602624   1.000000
      5         -3.551638   1.000000
      6         -0.500764   0.000000
      7          0.707932   0.000000
      8          1.554915   0.000000
      9          4.203194   0.000000
     10          4.376926   0.000000
     11          4.552014   0.000000
     12          4.728073   0.000000
     13          5.258917   0.000000
     14          6.429395   0.000000
     15          6.583616   0.000000
     16          6.616293   0.000000
 
  0.3636364E+00  0.2727273E+00  0.0000000E+00  0.4958678E-01
      1        -11.046222   1.000000
      2        -10.488409   1.000000
      3         -5.734578   1.000000
      4         -4.274851   1.000000
      5         -3.884998   1.000000
      6         -0.705072   0.000000
      7          1.130404   0.000000
      8          1.325912   0.000000
      9          4.280245   0.000000
     10          4.458575   0.000000
     11          5.285163   0.000000
     12          5.384932   0.000000
     13          5.532924   0.000000
     14          6.099191   0.000000
     15          6.128118   0.000000
     16          6.219257   0.000000
